Time,Lead I,Lead II,Lead III,aVR,aVL,aVF
0,-0.127015,-0.0851095,0.0419057,0.12247,-0.0975265,-0.0249437
0.005,-0.120625,-0.0841192,0.0365056,0.118209,-0.0907192,-0.0274897
0.01,-0.11273,-0.0837868,0.0289431,0.113459,-0.0817949,-0.031664
0.015,-0.105772,-0.0833081,0.022464,0.109165,-0.0740371,-0.0351284
0.02,-0.101148,-0.0817776,0.0193701,0.105612,-0.069581,-0.036031
0.025,-0.0967514,-0.0783577,0.0183937,0.101099,-0.066479,-0.0346202
0.03,-0.0910354,-0.0735666,0.0174687,0.095033,-0.0626448,-0.0323881
0.035,-0.0868176,-0.0685358,0.0182818,0.0896933,-0.0606791,-0.0290142
0.04,-0.0867499,-0.0634114,0.0233385,0.0866957,-0.0635596,-0.0231361
0.045,-0.0902429,-0.0571365,0.0331064,0.0850895,-0.0712157,-0.0138738
0.05,-0.0951243,-0.0486887,0.0464356,0.0830304,-0.0817297,-0.00130079
0.055,-0.0973918,-0.0387998,0.058592,0.0786302,-0.0900573,0.0114271
0.06,-0.0936639,-0.0299894,0.0636745,0.0713913,-0.0908393,0.0194481
0.065,-0.0847321,-0.0244531,0.060279,0.0630381,-0.0837221,0.0206841
0.07,-0.0729259,-0.022453,0.0504729,0.055067,-0.0712443,0.0161773
0.075,-0.061883,-0.0219904,0.0398926,0.0484243,-0.0587601,0.0103359
0.08,-0.0560318,-0.0199077,0.0361241,0.0438437,-0.0532063,0.00936257
0.085,-0.0551149,-0.0144711,0.0406437,0.0401755,-0.0552862,0.0151107
0.09,-0.0549006,-0.00636672,0.0485339,0.0353727,-0.0597179,0.0243452
0.095,-0.0521367,0.00203298,0.0541696,0.0289274,-0.0613759,0.0324486
0.1,-0.0456685,0.00957869,0.0552472,0.0208365,-0.0582637,0.0374272
0.105,-0.0359682,0.0169687,0.0529369,0.0109694,-0.0513293,0.04036
0.11,-0.0241177,0.0238842,0.0480019,0.000134815,-0.0416383,0.0415035
0.115,-0.0123642,0.0285299,0.0408941,-0.00933329,-0.0307487,0.040082
0.12,-0.00456029,0.0303115,0.0348718,-0.0148674,-0.0227661,0.0376335
0.125,-0.00308164,0.0307573,0.0338389,-0.0159785,-0.0213161,0.0372946
0.13,-0.00727205,0.0308175,0.0380896,-0.013594,-0.0261895,0.0397835
0.135,-0.0138003,0.0300924,0.0438928,-0.00940623,-0.0333091,0.0427153
0.14,-0.0180063,0.0291812,0.0471876,-0.00645184,-0.0376397,0.0440915
0.145,-0.0176695,0.0290806,0.0467502,-0.00658819,-0.0371927,0.0437809
0.15,-0.0146831,0.0297772,0.0444603,-0.00871462,-0.0341464,0.0428611
0.155,-0.0126985,0.0312004,0.0438989,-0.0106821,-0.0326765,0.0433586
0.16,-0.0146755,0.0330314,0.0477069,-0.0105977,-0.0360165,0.0466142
0.165,-0.0224962,0.0347289,0.0572251,-0.00706255,-0.046027,0.0530896
0.17,-0.0362456,0.0368302,0.0730758,-0.000337499,-0.0631167,0.0634542
0.175,-0.0538584,0.0396877,0.0935461,0.00818145,-0.085104,0.0769226
0.18,-0.0724076,0.0419322,0.11434,0.017595,-0.107819,0.0902236
0.185,-0.0894932,0.0415229,0.131016,0.0276956,-0.127311,0.0996154
0.19,-0.103471,0.0373074,0.140778,0.0381995,-0.141017,0.102818
0.195,-0.112502,0.0290726,0.141575,0.0481681,-0.146691,0.0985232
0.2,-0.116377,0.0180122,0.134389,0.0567907,-0.144779,0.0879887
0.205,-0.118019,0.00715997,0.125179,0.0640046,-0.140411,0.076406
0.21,-0.119465,-0.00159591,0.117869,0.0698945,-0.137025,0.0671303
0.215,-0.120964,-0.00899764,0.111966,0.0750332,-0.134482,0.0594488
0.22,-0.12291,-0.0147645,0.108146,0.0794866,-0.1334,0.0539136
0.225,-0.127516,-0.0176082,0.109908,0.0837876,-0.137077,0.0532893
0.23,-0.134936,-0.0177626,0.117174,0.0881608,-0.145556,0.0573951
0.235,-0.141984,-0.0156532,0.126331,0.0910121,-0.154912,0.0639
0.24,-0.146814,-0.0119812,0.134832,0.0916802,-0.162608,0.0709282
0.245,-0.150064,-0.00716409,0.1429,0.0907759,-0.169143,0.0783673
0.25,-0.153123,-0.000877685,0.152246,0.0889126,-0.176305,0.0873924
0.255,-0.15584,0.00628694,0.162127,0.0863442,-0.183578,0.0972335
0.26,-0.155652,0.0124088,0.168061,0.0827014,-0.186895,0.104194
0.265,-0.151238,0.0165321,0.16777,0.0777725,-0.184179,0.106407
0.27,-0.144949,0.0187575,0.163707,0.0728569,-0.178203,0.105346
0.275,-0.141225,0.0200455,0.161271,0.0699632,-0.174646,0.104683
0.28,-0.141551,0.0218807,0.163431,0.0690915,-0.176081,0.10699
0.285,-0.142975,0.0250527,0.168028,0.0680827,-0.179558,0.111475
0.29,-0.141893,0.0295496,0.171442,0.0648612,-0.180904,0.116043
0.295,-0.137449,0.0333137,0.170763,0.0601228,-0.177947,0.117824
0.3,-0.132406,0.0345712,0.166977,0.0564849,-0.172849,0.116364
0.305,-0.129413,0.0332078,0.162621,0.0555441,-0.168606,0.113062
0.31,-0.129367,0.0304633,0.15983,0.057102,-0.166968,0.109866
0.315,-0.132486,0.0281711,0.160657,0.0602263,-0.169246,0.10902
0.32,-0.137739,0.0282618,0.166001,0.0632067,-0.175364,0.112158
0.325,-0.143671,0.0309284,0.1746,0.065092,-0.183754,0.118662
0.33,-0.149073,0.0332816,0.182355,0.0668522,-0.19135,0.124498
0.335,-0.151222,0.0334113,0.184634,0.0680182,-0.193906,0.125888
0.34,-0.149386,0.0310351,0.180422,0.0683302,-0.190415,0.122085
0.345,-0.14748,0.0276049,0.175085,0.0692101,-0.186233,0.117023
0.35,-0.14822,0.0245952,0.172815,0.0713746,-0.185349,0.113975
0.355,-0.149926,0.0217834,0.17171,0.0739833,-0.185696,0.111713
0.36,-0.150778,0.0182174,0.168995,0.0765336,-0.184621,0.108087
0.365,-0.150883,0.0138096,0.164692,0.0791391,-0.182197,0.103058
0.37,-0.151367,0.0102111,0.161578,0.0814965,-0.180679,0.0991826
0.375,-0.152009,0.00886325,0.160872,0.082645,-0.180642,0.0979966
0.38,-0.15014,0.00881705,0.158957,0.081593,-0.178458,0.0968646
0.385,-0.144038,0.00863242,0.15267,0.0781764,-0.171305,0.0931282
0.39,-0.137082,0.00838531,0.145467,0.0743029,-0.16313,0.0888267
0.395,-0.135352,0.00883239,0.144184,0.073046,-0.16139,0.0883441
0.4,-0.14044,0.00942978,0.14987,0.075639,-0.167611,0.0919719
0.405,-0.147481,0.00976449,0.157245,0.0795106,-0.175934,0.0964232
0.41,-0.15098,0.0101184,0.161099,0.0813266,-0.180179,0.0988521
0.415,-0.14955,0.0107593,0.160309,0.0801307,-0.178897,0.0987663
0.42,-0.145698,0.0111624,0.15686,0.0776739,-0.174682,0.0970078
0.425,-0.143147,0.0109551,0.154102,0.0763207,-0.171616,0.0952956
0.43,-0.143385,0.0103401,0.153725,0.0768133,-0.171536,0.0947228
0.435,-0.145516,0.0111973,0.156713,0.0775487,-0.174492,0.096943
0.44,-0.148775,0.0147513,0.163526,0.0773784,-0.180307,0.102928
0.445,-0.152658,0.020843,0.173501,0.0761034,-0.188308,0.112204
0.45,-0.155812,0.0287316,0.184543,0.0733698,-0.196504,0.123134
0.455,-0.157661,0.0382246,0.195886,0.0689567,-0.20412,0.135164
0.46,-0.158114,0.0500492,0.208163,0.0623912,-0.21147,0.149079
0.465,-0.15607,0.0635843,0.219654,0.0533966,-0.216924,0.163528
0.47,-0.151766,0.0772133,0.22898,0.0430432,-0.219824,0.176781
0.475,-0.147012,0.0913198,0.238332,0.032154,-0.222479,0.190325
0.48,-0.142479,0.108245,0.250723,0.019765,-0.227015,0.20725
0.485,-0.138104,0.129048,0.267152,0.00522875,-0.233975,0.228746
0.49,-0.135961,0.151351,0.287313,-0.00888536,-0.244377,0.253263
0.495,-0.138174,0.170761,0.308935,-0.0188143,-0.258138,0.276953
0.5,-0.14372,0.184033,0.327753,-0.0232743,-0.272205,0.295479
0.505,-0.150005,0.189668,0.339673,-0.0228995,-0.282716,0.305615
0.51,-0.153317,0.184967,0.338283,-0.0182733,-0.283825,0.302099
0.515,-0.150339,0.168509,0.318847,-0.0104906,-0.270885,0.281375
0.52,-0.142839,0.142925,0.285764,-4.95E-05,-0.247454,0.247504
0.525,-0.136762,0.112561,0.249323,0.0139721,-0.222906,0.208934
0.53,-0.136092,0.0815466,0.217638,0.0314915,-0.204226,0.172734
0.535,-0.140592,0.0528703,0.193462,0.0506461,-0.192866,0.14222
0.54,-0.14796,0.0281883,0.176148,0.0691501,-0.187124,0.117974
0.545,-0.155575,0.00781631,0.163391,0.0853083,-0.184155,0.0988466
0.55,-0.161211,-0.00837116,0.15284,0.0979085,-0.181318,0.0834092
0.555,-0.164232,-0.0198713,0.144361,0.106292,-0.178166,0.0718738
0.56,-0.163866,-0.0273622,0.136504,0.110405,-0.173418,0.0630128
0.565,-0.15933,-0.0334539,0.125876,0.111304,-0.164663,0.0533598
0.57,-0.150515,-0.0402831,0.110232,0.110157,-0.150543,0.0403851
0.575,-0.136797,-0.0432784,0.0935187,0.103967,-0.132973,0.0290063
0.58,-0.116881,-0.0282116,0.0886689,0.0837689,-0.118674,0.034905
0.585,-0.0916798,0.0257451,0.117425,0.0380674,-0.120727,0.0826592
0.59,-0.0698491,0.140049,0.209898,-0.0405297,-0.161512,0.202042
0.595,-0.064472,0.329808,0.39428,-0.153192,-0.264861,0.418052
0.6,-0.0859437,0.587748,0.673691,-0.289716,-0.438575,0.728292
0.605,-0.138189,0.862775,1.00096,-0.418339,-0.65769,1.07603
0.61,-0.213876,1.06396,1.27783,-0.490795,-0.861239,1.35203
0.615,-0.295891,1.10909,1.40498,-0.469499,-0.981997,1.4515
0.62,-0.364107,0.987387,1.35149,-0.359851,-0.990502,1.35035
0.625,-0.403096,0.762876,1.16597,-0.207719,-0.905901,1.11362
0.63,-0.407903,0.520089,0.927992,-0.0647706,-0.771279,0.836049
0.635,-0.382983,0.316912,0.699895,0.0381457,-0.625199,0.587054
0.64,-0.338621,0.174419,0.51304,0.0948022,-0.491707,0.396905
0.645,-0.286384,0.0871283,0.373513,0.11504,-0.380992,0.265951
0.65,-0.235704,0.0376988,0.273403,0.114318,-0.293933,0.179615
0.655,-0.193849,0.00991306,0.203762,0.106196,-0.229561,0.123366
0.66,-0.163678,-0.0068994,0.156778,0.0984826,-0.185015,0.0865325
0.665,-0.141721,-0.0184367,0.123284,0.092467,-0.153001,0.0605336
0.67,-0.125526,-0.0271054,0.0984208,0.0881219,-0.129296,0.0411739
0.675,-0.117865,-0.0325001,0.0853647,0.0868131,-0.117334,0.0305214
0.68,-0.1205,-0.0348306,0.0856697,0.0896802,-0.119032,0.029352
0.685,-0.130389,-0.0352938,0.0950947,0.0956567,-0.130183,0.0345261
0.69,-0.141615,-0.0347509,0.106864,0.101825,-0.14346,0.0416347
0.695,-0.148755,-0.0338419,0.114913,0.105422,-0.152229,0.0468064
0.7,-0.149479,-0.0325331,0.116946,0.105085,-0.15382,0.0487356
0.705,-0.144564,-0.0304546,0.114109,0.101047,-0.149345,0.0482979
0.71,-0.135712,-0.0279704,0.107742,0.0945023,-0.140559,0.0460562
0.715,-0.123404,-0.0259157,0.0974883,0.0862098,-0.127532,0.0413224
0.72,-0.10781,-0.0250329,0.082777,0.0766968,-0.110035,0.0333386
0.725,-0.0935738,-0.023731,0.0698428,0.0677259,-0.0943486,0.0266227
0.73,-0.0865494,-0.0194555,0.0670938,0.0612019,-0.0887059,0.027504
0.735,-0.0859787,-0.0128754,0.0731033,0.0570734,-0.091846,0.0347726
0.74,-0.0882222,-0.00504789,0.0831743,0.0538495,-0.0989558,0.0451063
0.745,-0.0918627,0.00333738,0.0952001,0.0511101,-0.108001,0.0568906
0.75,-0.0951263,0.0116794,0.106806,0.0481781,-0.116585,0.0684074
0.755,-0.0951658,0.0205424,0.115708,0.0430838,-0.121748,0.0786642
0.76,-0.091051,0.0306808,0.121732,0.0348548,-0.12285,0.0879954
0.765,-0.0853442,0.0410554,0.1264,0.0255701,-0.12225,0.0966801
0.77,-0.0810926,0.0494784,0.130571,0.0182525,-0.122204,0.103951
0.775,-0.0791054,0.0556217,0.134727,0.0135583,-0.123456,0.109898
0.78,-0.0787624,0.0610537,0.139816,0.0102242,-0.126196,0.115972
0.785,-0.0786352,0.0660199,0.144655,0.00728341,-0.128917,0.121633
0.79,-0.075427,0.0705288,0.145956,0.00282798,-0.127815,0.124987
0.795,-0.0655883,0.075953,0.141541,-0.00598406,-0.119586,0.12557
0.8,-0.0505891,0.0828066,0.133396,-0.0186008,-0.106224,0.124824
0.805,-0.0354369,0.0897988,0.125236,-0.0313858,-0.0927644,0.12415
0.81,-0.0229987,0.095185,0.118184,-0.0416768,-0.0815117,0.123188
0.815,-0.0132595,0.0982797,0.111539,-0.0490865,-0.0720525,0.121139
0.82,-0.005249,0.0993893,0.104638,-0.0543519,-0.0634434,0.117795
0.825,0.0010622,0.0997685,0.0987063,-0.0582146,-0.0563748,0.114589
0.83,0.00350614,0.102068,0.0985619,-0.0609532,-0.0548804,0.115834
0.835,0.000858367,0.106594,0.105736,-0.0620376,-0.0605509,0.122589
0.84,-0.00512335,0.10979,0.114913,-0.0604291,-0.069303,0.129732
0.845,-0.0115731,0.109769,0.121342,-0.0566931,-0.0767384,0.133432
0.85,-0.0160942,0.107924,0.124019,-0.0530181,-0.0808941,0.133912
0.855,-0.0188025,0.106379,0.125181,-0.050562,-0.0831289,0.133691
0.86,-0.0235285,0.10726,0.130789,-0.0483425,-0.089095,0.137437
0.865,-0.0334726,0.110948,0.144421,-0.0447306,-0.102707,0.147437
0.87,-0.0474,0.114843,0.162243,-0.0389383,-0.121038,0.159976
0.875,-0.0628039,0.115457,0.178261,-0.0303995,-0.139179,0.169579
0.88,-0.0779929,0.112162,0.190155,-0.0197275,-0.154815,0.174543
0.885,-0.0909593,0.106044,0.197004,-0.00870941,-0.166255,0.174965
0.89,-0.101192,0.0975846,0.198777,0.00208266,-0.173187,0.171104
0.895,-0.110325,0.0883956,0.198721,0.0126612,-0.178428,0.165767
0.9,-0.119773,0.0807462,0.200519,0.022532,-0.18492,0.162388
0.905,-0.128288,0.0746316,0.202919,0.0309783,-0.191222,0.160244
0.91,-0.132962,0.0672641,0.200226,0.0379309,-0.192367,0.154436
0.915,-0.133421,0.0575417,0.190963,0.0438092,-0.187283,0.143474
0.92,-0.131408,0.0482716,0.179679,0.0479987,-0.179606,0.131608
0.925,-0.126629,0.0433917,0.170021,0.0480571,-0.171271,0.123214
0.93,-0.120218,0.0441276,0.164346,0.0439309,-0.164293,0.120362
0.935,-0.118099,0.0495688,0.167668,0.0395658,-0.164987,0.125422
0.94,-0.124761,0.0574951,0.182256,0.0388357,-0.177256,0.13842
0.945,-0.138359,0.0647696,0.203129,0.0424868,-0.197158,0.154671
0.95,-0.153271,0.0701782,0.223449,0.0479735,-0.217499,0.169526
0.955,-0.16375,0.0741043,0.237854,0.051757,-0.231866,0.180109
0.96,-0.166825,0.0765139,0.243339,0.0521409,-0.236808,0.184667
0.965,-0.163763,0.0772747,0.241038,0.0499343,-0.233712,0.183778
0.97,-0.157143,0.076548,0.233691,0.0465314,-0.225648,0.179116
0.975,-0.148716,0.0755671,0.224283,0.0422325,-0.215351,0.173118
0.98,-0.14108,0.0757781,0.216858,0.0377019,-0.206655,0.168953
0.985,-0.136554,0.0785333,0.215088,0.0334984,-0.20302,0.169522
0.99,-0.134224,0.0847238,0.218948,0.0285791,-0.203904,0.175325
0.995,-0.132186,0.0918901,0.224076,0.0232649,-0.205688,0.182423
1,-0.13114,0.0973055,0.228446,0.0195347,-0.207607,0.188073
1.005,-0.13262,0.099935,0.232555,0.0188704,-0.210833,0.191963
1.01,-0.136358,0.0997976,0.236155,0.021108,-0.21507,0.193962
1.015,-0.139936,0.0977394,0.237676,0.0243624,-0.218014,0.193652
1.02,-0.140987,0.0943867,0.235374,0.0269049,-0.217292,0.190387
1.025,-0.139056,0.0903788,0.229435,0.0281036,-0.212748,0.184644
1.03,-0.134577,0.0870917,0.221669,0.0274157,-0.205679,0.178263
1.035,-0.127938,0.0851234,0.213061,0.0247191,-0.196876,0.172157
1.04,-0.121,0.0838333,0.204833,0.0214581,-0.18812,0.166662
1.045,-0.117067,0.0831342,0.200201,0.019591,-0.183174,0.163584
1.05,-0.118818,0.0831033,0.201921,0.0206197,-0.185178,0.164559
1.055,-0.127122,0.0831585,0.21028,0.0253822,-0.194799,0.169417
1.06,-0.13939,0.0827453,0.222135,0.0327039,-0.208727,0.176023
1.065,-0.150792,0.081839,0.232631,0.03981,-0.221369,0.181559
1.07,-0.159329,0.0806851,0.240014,0.0454048,-0.23056,0.185155
1.075,-0.164753,0.0794549,0.244208,0.0492471,-0.236114,0.186867
1.08,-0.166288,0.0784638,0.244752,0.0507054,-0.237314,0.186609
1.085,-0.164576,0.0774121,0.241988,0.0503238,-0.234729,0.184405
1.09,-0.16128,0.0762706,0.23755,0.0490801,-0.230265,0.181185
1.095,-0.158173,0.0768935,0.235066,0.0469265,-0.227036,0.18011
1.1,-0.15559,0.0808901,0.23648,0.0431281,-0.226362,0.183234
1.105,-0.153456,0.0873759,0.240832,0.0381515,-0.227642,0.189491
1.11,-0.15196,0.0952818,0.247242,0.0327234,-0.23048,0.197756
1.115,-0.151435,0.105305,0.25674,0.0266334,-0.23566,0.209026
1.12,-0.151951,0.117524,0.269475,0.0198763,-0.24331,0.223434
1.125,-0.150936,0.129435,0.280371,0.0124137,-0.249015,0.236601
1.13,-0.144958,0.139765,0.284723,0.00299786,-0.248076,0.245079
1.135,-0.135222,0.151189,0.286411,-0.00921817,-0.24343,0.252648
1.14,-0.127731,0.166539,0.29427,-0.0224061,-0.243642,0.266048
1.145,-0.126302,0.184841,0.311144,-0.0337975,-0.25256,0.286357
1.15,-0.130349,0.203346,0.333695,-0.0421448,-0.267915,0.31006
1.155,-0.137636,0.220132,0.357768,-0.0476289,-0.286022,0.333651
1.16,-0.144728,0.233592,0.378321,-0.0513059,-0.301982,0.353288
1.165,-0.148171,0.240538,0.388708,-0.0533279,-0.309967,0.363295
1.17,-0.145503,0.237736,0.383239,-0.0532506,-0.305269,0.35852
1.175,-0.137175,0.223596,0.360772,-0.0498952,-0.28749,0.337385
1.18,-0.129447,0.19924,0.328687,-0.0402945,-0.264504,0.304798
1.185,-0.129622,0.168397,0.298019,-0.022387,-0.246899,0.269286
1.19,-0.138217,0.136101,0.274317,0.00122169,-0.238177,0.236955
1.195,-0.149273,0.105736,0.255009,0.0251359,-0.233412,0.208276
1.2,-0.156663,0.0794372,0.2361,0.0445862,-0.226762,0.182175
1.205,-0.158063,0.0586668,0.21673,0.0573866,-0.216387,0.159
1.21,-0.155413,0.0434093,0.198822,0.0646654,-0.204518,0.139852
1.215,-0.151438,0.0338708,0.185309,0.0678775,-0.194421,0.126543
1.22,-0.147011,0.0293486,0.17636,0.0679324,-0.186698,0.118766
1.225,-0.144177,0.0275171,0.171694,0.0673536,-0.182368,0.115015
1.23,-0.144193,0.0257447,0.169938,0.0683863,-0.181364,0.112977
1.235,-0.143723,0.0258878,0.169611,0.0680324,-0.180904,0.112871
1.24,-0.135297,0.0380347,0.173331,0.0561542,-0.178186,0.122032
1.245,-0.113475,0.0791899,0.192665,0.0197944,-0.17675,0.156955
1.25,-0.084227,0.169768,0.253995,-0.0493868,-0.195272,0.244659
1.255,-0.063494,0.329736,0.39323,-0.153715,-0.26369,0.417405
1.26,-0.0651413,0.565008,0.63015,-0.288598,-0.401426,0.690025
1.265,-0.0966985,0.843174,0.939872,-0.430978,-0.598464,1.02944
1.27,-0.15744,1.08266,1.2401,-0.534176,-0.80687,1.34105
1.275,-0.235113,1.18924,1.42435,-0.550866,-0.958093,1.50896
1.28,-0.308778,1.12268,1.43146,-0.469905,-1.00472,1.47463
1.285,-0.358383,0.923152,1.28153,-0.32607,-0.946806,1.27288
1.29,-0.375099,0.674488,1.04959,-0.172852,-0.822543,0.995395
1.295,-0.360527,0.450031,0.810558,-0.0516757,-0.676126,0.727801
1.3,-0.321484,0.285635,0.607119,0.0206973,-0.536129,0.515432
1.305,-0.270291,0.182604,0.452895,0.0506263,-0.417531,0.366905
1.31,-0.223076,0.125003,0.348079,0.0566223,-0.329756,0.273134
1.315,-0.191069,0.0952579,0.286327,0.0553166,-0.275625,0.220308
1.32,-0.174321,0.0803201,0.254641,0.0542717,-0.247662,0.19339
1.325,-0.165693,0.0710814,0.236774,0.0546238,-0.232364,0.17774
1.33,-0.159357,0.062683,0.22204,0.0558149,-0.2202,0.164385
1.335,-0.152642,0.0544816,0.207123,0.0566727,-0.20771,0.151038
1.34,-0.144221,0.0465355,0.190757,0.0563989,-0.1934,0.137001
1.345,-0.13299,0.0389004,0.17189,0.0543225,-0.176022,0.1217
1.35,-0.119082,0.0331242,0.152207,0.049628,-0.156629,0.107001
1.355,-0.106139,0.0309447,0.137084,0.0434135,-0.140425,0.0970113
1.36,-0.0989241,0.0319021,0.130826,0.0386952,-0.132646,0.0939512
1.365,-0.0992262,0.0356508,0.134877,0.0367053,-0.135159,0.0984542
1.37,-0.10513,0.0421296,0.147259,0.036373,-0.145717,0.109344
1.375,-0.112021,0.0501052,0.162126,0.035747,-0.158279,0.122532
1.38,-0.114722,0.0565883,0.17131,0.0335635,-0.165141,0.131577
1.385,-0.109858,0.0597683,0.169626,0.0289192,-0.16136,0.132441
1.39,-0.100436,0.061754,0.16219,0.022333,-0.151627,0.129294
1.395,-0.0938961,0.065239,0.159135,0.0165452,-0.146088,0.129542
1.4,-0.0933141,0.0712606,0.164575,0.0127326,-0.148892,0.136159
1.405,-0.0943039,0.0793093,0.173613,0.00865714,-0.154682,0.146025
1.41,-0.092998,0.0883288,0.181327,0.00269579,-0.158381,0.155686
1.415,-0.0900118,0.0974942,0.187506,-0.00431993,-0.160225,0.164545
1.42,-0.0853805,0.106349,0.191729,-0.0121059,-0.159989,0.172095
1.425,-0.0781083,0.114262,0.19237,-0.0208732,-0.156161,0.177034
1.43,-0.0695282,0.120481,0.19001,-0.0294178,-0.149844,0.179262
1.435,-0.0628112,0.12561,0.188421,-0.0362566,-0.145049,0.181305
1.44,-0.0588278,0.130954,0.189782,-0.0416421,-0.143535,0.185177
1.445,-0.0549678,0.137205,0.192173,-0.0474799,-0.142687,0.190167
1.45,-0.0476722,0.143724,0.191397,-0.0554557,-0.138026,0.193482
1.455,-0.0361235,0.15074,0.186863,-0.0661738,-0.128741,0.194915
1.46,-0.0233951,0.157601,0.180996,-0.0774837,-0.118005,0.195489
1.465,-0.0143197,0.163097,0.177417,-0.0858968,-0.110699,0.196596
1.47,-0.0116787,0.166585,0.178264,-0.0894353,-0.109663,0.199099
1.475,-0.0142846,0.167906,0.182191,-0.0886934,-0.113435,0.202128
1.48,-0.0177104,0.167876,0.185586,-0.0866979,-0.117373,0.204071
1.485,-0.0175197,0.167287,0.184806,-0.0864679,-0.116813,0.203281
1.49,-0.01312,0.166069,0.179189,-0.0883054,-0.11103,0.199335
1.495,-0.00783028,0.164036,0.171867,-0.0901855,-0.103748,0.193934
1.5,-0.0046265,0.161903,0.166529,-0.0908033,-0.0988167,0.18962
1.505,-0.00400727,0.161074,0.165081,-0.0906824,-0.0976232,0.188306
1.51,-0.00589622,0.162222,0.168118,-0.0902546,-0.100467,0.190722
1.515,-0.0106858,0.166068,0.176754,-0.0897098,-0.108218,0.197928
1.52,-0.0189008,0.171808,0.190709,-0.0882812,-0.121018,0.209299
1.525,-0.0303924,0.177679,0.208071,-0.0850358,-0.137677,0.222713
1.53,-0.0425991,0.181915,0.224514,-0.080434,-0.154218,0.234652
1.535,-0.0512825,0.183308,0.23459,-0.0762249,-0.165049,0.241274
1.54,-0.0557527,0.180565,0.236317,-0.0720603,-0.168627,0.240687
1.545,-0.0614472,0.174129,0.235576,-0.065057,-0.171487,0.236544
1.55,-0.0742213,0.167023,0.241244,-0.053579,-0.182134,0.235713
1.555,-0.0933878,0.161424,0.254812,-0.0392809,-0.201033,0.240314
1.56,-0.113603,0.157042,0.270644,-0.0250795,-0.221845,0.246924
1.565,-0.129541,0.15279,0.282332,-0.0134226,-0.237795,0.251218
1.57,-0.13953,0.148152,0.287682,-0.00497789,-0.246651,0.251629
1.575,-0.144273,0.144862,0.289135,-0.000339963,-0.250228,0.250568
1.58,-0.144859,0.14393,0.28879,0.000536297,-0.250367,0.249831
1.585,-0.142979,0.14428,0.287259,-0.000751351,-0.248398,0.249149
1.59,-0.139144,0.144952,0.284096,-0.00335299,-0.244358,0.247711
1.595,-0.133555,0.145562,0.279117,-0.00693248,-0.238256,0.245189
1.6,-0.129859,0.146975,0.276834,-0.00988176,-0.234804,0.244686
1.605,-0.131715,0.150243,0.281958,-0.010697,-0.238834,0.249531
1.61,-0.137345,0.155197,0.292542,-0.0103067,-0.248195,0.258502
1.615,-0.142835,0.160784,0.303619,-0.0103625,-0.257761,0.268123
1.62,-0.146594,0.166023,0.312617,-0.0112172,-0.265126,0.276343
1.625,-0.147872,0.170758,0.31863,-0.0132128,-0.269335,0.282548
1.63,-0.145578,0.175254,0.320832,-0.0171331,-0.269282,0.286415
1.635,-0.139765,0.179227,0.318992,-0.0227834,-0.264864,0.287647
1.64,-0.132463,0.182379,0.314842,-0.0288188,-0.258252,0.28707
1.645,-0.125464,0.184721,0.310186,-0.034212,-0.251522,0.285734
1.65,-0.120473,0.185843,0.306315,-0.0377414,-0.246406,0.284147
1.655,-0.119901,0.184981,0.304882,-0.0375735,-0.245249,0.282822
1.66,-0.124467,0.18329,0.307756,-0.0339615,-0.249544,0.283506
1.665,-0.13273,0.183748,0.316478,-0.0294554,-0.25935,0.288806
1.67,-0.141058,0.187598,0.328656,-0.0268694,-0.27119,0.298059
1.675,-0.145379,0.192845,0.338224,-0.0274048,-0.279208,0.306613
1.68,-0.143716,0.196113,0.339829,-0.0302518,-0.279174,0.309426
1.685,-0.137629,0.196456,0.334085,-0.0339635,-0.272344,0.306307
1.69,-0.131259,0.195331,0.32659,-0.0369917,-0.264339,0.301331
1.695,-0.127592,0.193309,0.320901,-0.0379417,-0.258938,0.296879
1.7,-0.128263,0.19096,0.319223,-0.0361983,-0.258356,0.294554
1.705,-0.133999,0.188397,0.322396,-0.0314069,-0.263499,0.294906
1.71,-0.142309,0.185251,0.327559,-0.0247927,-0.271278,0.296071
1.715,-0.147768,0.181747,0.329515,-0.0196179,-0.275559,0.295177
1.72,-0.148395,0.178558,0.326953,-0.0174143,-0.274443,0.291857
1.725,-0.14672,0.176531,0.323251,-0.0172118,-0.271337,0.288549
1.73,-0.144411,0.175287,0.319699,-0.0178262,-0.267954,0.28578
1.735,-0.141716,0.174002,0.315718,-0.0186401,-0.264099,0.28274
1.74,-0.139545,0.172078,0.311623,-0.0187833,-0.260482,0.279265
1.745,-0.138946,0.168466,0.307412,-0.017043,-0.257705,0.274748
1.75,-0.14165,0.164041,0.305691,-0.0129274,-0.258273,0.2712
1.755,-0.148248,0.161348,0.309596,-0.0075635,-0.264336,0.271899
1.76,-0.155479,0.161604,0.317083,-0.00353608,-0.272834,0.27637
1.765,-0.15868,0.164222,0.322901,-0.00319959,-0.278041,0.28124
1.77,-0.157194,0.167569,0.324763,-0.00599013,-0.278258,0.284248
1.775,-0.153627,0.169135,0.322762,-0.00895334,-0.275044,0.283997
1.78,-0.150415,0.16839,0.318806,-0.0103779,-0.270905,0.281283
1.785,-0.149243,0.167412,0.316655,-0.0104898,-0.268986,0.279476
1.79,-0.149848,0.167581,0.317429,-0.0102381,-0.269783,0.280021
1.795,-0.150727,0.16889,0.319616,-0.0104864,-0.271553,0.282039
1.8,-0.149774,0.171055,0.320829,-0.012287,-0.271702,0.283989
1.805,-0.144596,0.174993,0.31959,-0.0175496,-0.267998,0.285547
1.81,-0.137158,0.181545,0.318703,-0.0256269,-0.263192,0.288818
1.815,-0.131917,0.191773,0.32369,-0.0345581,-0.263045,0.297603
1.82,-0.129249,0.205775,0.335024,-0.044182,-0.268048,0.31223
1.825,-0.128595,0.222357,0.350951,-0.0541335,-0.276866,0.331
1.83,-0.13181,0.240468,0.372278,-0.0627337,-0.291035,0.353769
1.835,-0.139498,0.259112,0.398611,-0.0690593,-0.310677,0.379736
1.84,-0.148696,0.277386,0.426082,-0.074299,-0.331848,0.406147
1.845,-0.155537,0.295791,0.451328,-0.080976,-0.350374,0.43135
1.85,-0.159178,0.313948,0.473126,-0.0893563,-0.365061,0.454417
1.855,-0.161091,0.329858,0.490948,-0.0974374,-0.376455,0.473892
1.86,-0.162384,0.341982,0.504367,-0.103691,-0.384949,0.48864
1.865,-0.162586,0.350005,0.512591,-0.108206,-0.389814,0.49802
1.87,-0.160615,0.351834,0.512449,-0.1104,-0.388593,0.498994
1.875,-0.155505,0.344133,0.499638,-0.108904,-0.378247,0.487151
1.88,-0.147665,0.325205,0.472871,-0.102503,-0.358266,0.460769
1.885,-0.140272,0.296838,0.43711,-0.0903936,-0.333351,0.423745
1.89,-0.136401,0.26235,0.398751,-0.0727164,-0.30897,0.381686
1.895,-0.136243,0.226892,0.363135,-0.052336,-0.288316,0.340652
1.9,-0.137829,0.19577,0.3336,-0.033452,-0.27218,0.305631
1.905,-0.140207,0.171438,0.311645,-0.0180312,-0.260877,0.278908
1.91,-0.144923,0.154331,0.299253,-0.00543166,-0.256445,0.261877
1.915,-0.152069,0.143845,0.295914,0.00474845,-0.258643,0.253895
1.92,-0.158996,0.138423,0.297418,0.0118779,-0.263511,0.251633
1.925,-0.16214,0.135682,0.297822,0.0152755,-0.265559,0.250284
1.93,-0.155585,0.133243,0.288828,0.0128988,-0.256582,0.243683
1.935,-0.136304,0.131475,0.267779,0.00278851,-0.233297,0.230509
1.94,-0.111687,0.138074,0.249761,-0.0152342,-0.208682,0.223917
1.945,-0.0904553,0.169191,0.259647,-0.0454583,-0.202131,0.24759
1.95,-0.0776779,0.244504,0.322182,-0.096317,-0.230859,0.327176
1.955,-0.0797086,0.381156,0.460865,-0.174041,-0.3121,0.486141
1.96,-0.101753,0.58724,0.688993,-0.280296,-0.456537,0.736833
1.965,-0.143387,0.847496,0.990883,-0.406518,-0.65487,1.06139
1.97,-0.201931,1.10301,1.30494,-0.520237,-0.869992,1.39023
1.975,-0.271136,1.26455,1.53569,-0.573549,-1.04317,1.61672
1.98,-0.339789,1.26933,1.60912,-0.53667,-1.1252,1.66187
1.985,-0.393084,1.1277,1.52079,-0.424133,-1.10497,1.52911
1.99,-0.417907,0.909271,1.32718,-0.283689,-1.00753,1.29121
1.995,-0.409034,0.687886,1.09692,-0.160995,-0.869462,1.03046
2,-0.371778,0.506498,0.878276,-0.0777808,-0.721718,0.799499
2.005,-0.317671,0.376143,0.693813,-0.033759,-0.58398,0.617739
2.01,-0.259625,0.289648,0.549273,-0.0173337,-0.467017,0.484351
2.015,-0.208896,0.234393,0.443289,-0.0147208,-0.376539,0.39126
2.02,-0.171243,0.198831,0.370074,-0.0159283,-0.31253,0.328458
2.025,-0.146309,0.17427,0.320579,-0.0161431,-0.269558,0.285701
2.03,-0.12953,0.155883,0.285413,-0.0152148,-0.239567,0.254782
2.035,-0.116471,0.142262,0.258733,-0.0148907,-0.216624,0.231515
2.04,-0.107199,0.133065,0.240264,-0.0149334,-0.200608,0.215541
2.045,-0.10435,0.128899,0.233249,-0.0141737,-0.194913,0.209087
2.05,-0.107061,0.130334,0.237395,-0.0134367,-0.198871,0.212308
2.055,-0.111032,0.134835,0.245867,-0.0137429,-0.206055,0.219798
2.06,-0.113315,0.139546,0.252861,-0.0151446,-0.211412,0.226556
2.065,-0.113464,0.143459,0.256924,-0.0173178,-0.213843,0.231161
2.07,-0.112011,0.147189,0.2592,-0.0203104,-0.214318,0.234629
2.075,-0.1093,0.151043,0.260343,-0.0241001,-0.213413,0.237514
2.08,-0.106025,0.153909,0.259933,-0.0276458,-0.211286,0.238932
2.085,-0.103969,0.155859,0.259828,-0.0299586,-0.210038,0.239997
2.09,-0.104153,0.159125,0.263278,-0.0317383,-0.212136,0.243874
2.095,-0.105833,0.164967,0.2708,-0.0341411,-0.217449,0.25159
2.1,-0.107576,0.172836,0.280411,-0.0376778,-0.224004,0.261682
2.105,-0.108417,0.181925,0.290342,-0.0424394,-0.230224,0.272663
2.11,-0.106632,0.19071,0.297342,-0.0485428,-0.233234,0.281777
2.115,-0.10123,0.197615,0.298845,-0.0556483,-0.230983,0.286631
2.12,-0.0935302,0.20207,0.295601,-0.0626657,-0.224665,0.28733
2.125,-0.0853712,0.204571,0.289942,-0.0688201,-0.216687,0.285507
2.13,-0.0769403,0.206331,0.283271,-0.0747036,-0.207968,0.282672
2.135,-0.06743,0.209106,0.276536,-0.0817967,-0.198589,0.280386
2.14,-0.0575045,0.213428,0.270933,-0.0900227,-0.189623,0.279646
2.145,-0.0491899,0.220351,0.269541,-0.0988199,-0.184019,0.282839
2.15,-0.042157,0.230765,0.272922,-0.108893,-0.181911,0.290804
2.155,-0.0341375,0.242955,0.277092,-0.120561,-0.179689,0.300249
2.16,-0.0262242,0.253091,0.279315,-0.130982,-0.176403,0.307385
2.165,-0.0221278,0.259148,0.281276,-0.136844,-0.17517,0.312014
2.17,-0.0227125,0.261831,0.284543,-0.138055,-0.177394,0.315449
2.175,-0.0245261,0.262996,0.287522,-0.137681,-0.180161,0.317842
2.18,-0.0232972,0.264627,0.287924,-0.139332,-0.179684,0.319015
2.185,-0.0178898,0.266581,0.284471,-0.143582,-0.174568,0.31815
2.19,-0.010493,0.268022,0.278515,-0.148684,-0.166859,0.315543
2.195,-0.00494751,0.268663,0.273611,-0.152256,-0.160825,0.313082
2.2,-0.00352124,0.268674,0.272196,-0.153086,-0.159185,0.312271
2.205,-0.00621548,0.269144,0.275359,-0.151802,-0.162567,0.314369
2.21,-0.0122106,0.271397,0.283608,-0.149641,-0.170791,0.320432
2.215,-0.0206988,0.275065,0.295764,-0.146858,-0.18271,0.329568
2.22,-0.0306936,0.279224,0.309918,-0.143489,-0.196652,0.340141
2.225,-0.0411624,0.283036,0.324198,-0.139646,-0.210941,0.350586
2.23,-0.0512632,0.285156,0.336419,-0.135038,-0.223829,0.358867
2.235,-0.0608008,0.284664,0.345465,-0.129248,-0.234558,0.363805
2.24,-0.0701923,0.281711,0.351904,-0.12212,-0.243697,0.365818
2.245,-0.0800469,0.276339,0.356386,-0.113329,-0.251975,0.365304
2.25,-0.0894846,0.268671,0.358155,-0.103453,-0.258445,0.361898
2.255,-0.098118,0.259544,0.357662,-0.0931993,-0.263145,0.356344
2.26,-0.107058,0.250987,0.358045,-0.0830975,-0.268527,0.351625
2.265,-0.11534,0.244426,0.359766,-0.074528,-0.274302,0.34883
2.27,-0.119021,0.238901,0.357922,-0.0692132,-0.275363,0.344576
2.275,-0.117336,0.23321,0.350546,-0.0668996,-0.270131,0.337031
2.28,-0.115004,0.227851,0.342855,-0.0651519,-0.264345,0.329497
2.285,-0.115744,0.223221,0.338965,-0.0620517,-0.262526,0.324578
2.29,-0.119989,0.220162,0.340152,-0.0578349,-0.265663,0.323498
2.295,-0.127589,0.220172,0.347761,-0.0534523,-0.274444,0.327896
2.3,-0.135814,0.22333,0.359143,-0.0505273,-0.285763,0.336291
2.305,-0.139529,0.227087,0.366616,-0.0505518,-0.292222,0.342774
2.31,-0.139557,0.230828,0.370385,-0.0526954,-0.294415,0.34711
2.315,-0.141621,0.235473,0.377094,-0.0541852,-0.299481,0.353666
2.32,-0.147873,0.240569,0.388441,-0.053518,-0.309641,0.363159
2.325,-0.155548,0.244546,0.400094,-0.0513833,-0.3208,0.372183
2.33,-0.159557,0.246745,0.406303,-0.050338,-0.326699,0.377037
2.335,-0.155347,0.247657,0.403004,-0.0532955,-0.322363,0.375659
2.34,-0.145125,0.248308,0.393433,-0.0595723,-0.310937,0.370509
2.345,-0.136787,0.249911,0.386698,-0.065312,-0.302234,0.367546
2.35,-0.134772,0.253774,0.388546,-0.0687054,-0.302138,0.370843
2.355,-0.136701,0.258525,0.395225,-0.070335,-0.307108,0.377443
2.36,-0.137844,0.261426,0.39927,-0.0713502,-0.310103,0.381453
2.365,-0.136988,0.262365,0.399353,-0.0723864,-0.309656,0.382043
2.37,-0.136666,0.263183,0.399849,-0.073045,-0.309757,0.382802
2.375,-0.138388,0.265026,0.403414,-0.0731141,-0.31281,0.385924
2.38,-0.140699,0.26695,0.40765,-0.0728909,-0.316589,0.38948
2.385,-0.141916,0.267577,0.409493,-0.0725506,-0.318356,0.390906
2.39,-0.141832,0.266426,0.408258,-0.0719343,-0.317595,0.389529
2.395,-0.140581,0.262486,0.403067,-0.0703822,-0.313875,0.384257
2.4,-0.138066,0.255685,0.393752,-0.0679071,-0.307045,0.374952
2.405,-0.134961,0.248118,0.383079,-0.0653309,-0.29909,0.364421
2.41,-0.133998,0.241949,0.375946,-0.0623255,-0.294416,0.356742
2.415,-0.136288,0.238187,0.374475,-0.0588317,-0.294889,0.35372
2.42,-0.139722,0.236151,0.375873,-0.0556729,-0.297679,0.353352
2.425,-0.142617,0.234369,0.376986,-0.0529732,-0.299993,0.352966
2.43,-0.145035,0.232348,0.377384,-0.0504103,-0.301619,0.352029
2.435,-0.147901,0.230611,0.378512,-0.0477525,-0.303925,0.351677
2.44,-0.150212,0.2292,0.379412,-0.0456037,-0.305779,0.351382
2.445,-0.150202,0.228646,0.378848,-0.0452892,-0.305447,0.350736
2.45,-0.148668,0.229589,0.378257,-0.0467195,-0.30422,0.350939
2.455,-0.147616,0.23096,0.378576,-0.0481185,-0.303797,0.351915
2.46,-0.147918,0.231328,0.379246,-0.0481568,-0.304358,0.352515
2.465,-0.149204,0.230539,0.379743,-0.046959,-0.305387,0.352346
2.47,-0.151035,0.229392,0.380427,-0.0452396,-0.30684,0.352079
2.475,-0.153531,0.228486,0.382017,-0.043275,-0.309199,0.352474
2.48,-0.155835,0.227642,0.383476,-0.0414576,-0.311371,0.352829
2.485,-0.156165,0.226762,0.382927,-0.0407593,-0.311245,0.352004
2.49,-0.155492,0.225666,0.381157,-0.0405151,-0.309834,0.350349
2.495,-0.156581,0.224907,0.381488,-0.0394479,-0.310654,0.350102
2.5,-0.159849,0.226235,0.386083,-0.0383278,-0.315194,0.353522
2.505,-0.163009,0.231291,0.3943,-0.0394222,-0.321763,0.361185
2.51,-0.164184,0.241107,0.405291,-0.0444118,-0.328786,0.373198
2.515,-0.163361,0.255495,0.418856,-0.0531934,-0.336143,0.389336
2.52,-0.16181,0.272796,0.434606,-0.0640779,-0.344341,0.408418
2.525,-0.160534,0.290823,0.451357,-0.0752226,-0.353275,0.428498
2.53,-0.158798,0.308361,0.467159,-0.0863501,-0.361396,0.447746
2.535,-0.154854,0.325902,0.480756,-0.0987546,-0.36697,0.465724
2.54,-0.147123,0.343078,0.490201,-0.113135,-0.367959,0.481093
2.545,-0.135119,0.359116,0.494235,-0.129325,-0.363357,0.492682
2.55,-0.121504,0.374511,0.496015,-0.146074,-0.356524,0.502598
2.555,-0.112607,0.388787,0.501395,-0.159453,-0.354494,0.513947
2.56,-0.112969,0.401099,0.514067,-0.166352,-0.362019,0.528371
2.565,-0.12193,0.409582,0.531512,-0.166075,-0.377265,0.54334
2.57,-0.134504,0.411493,0.545997,-0.15992,-0.392887,0.552807
2.575,-0.145446,0.403669,0.549115,-0.149085,-0.401004,0.550089
2.58,-0.152229,0.384274,0.536503,-0.133971,-0.397639,0.53161
2.585,-0.154557,0.355293,0.509849,-0.115895,-0.383595,0.49949
2.59,-0.154241,0.321509,0.475751,-0.0965722,-0.363726,0.460298
2.595,-0.154536,0.288152,0.442688,-0.0771427,-0.344808,0.42195
2.6,-0.156582,0.258213,0.414795,-0.0586764,-0.329885,0.388561
2.605,-0.159507,0.232599,0.392106,-0.0421994,-0.318474,0.360673
2.61,-0.161632,0.212327,0.373959,-0.0292688,-0.309223,0.338492
2.615,-0.161178,0.198178,0.359356,-0.021362,-0.30053,0.321892
2.62,-0.156807,0.19001,0.346818,-0.0191696,-0.290768,0.309938
2.625,-0.14847,0.186653,0.335123,-0.0220451,-0.279202,0.301247
2.63,-0.139785,0.185855,0.32564,-0.0265987,-0.268713,0.295312
2.635,-0.13423,0.187003,0.321233,-0.0304686,-0.262961,0.29343
2.64,-0.130419,0.194163,0.324582,-0.0368029,-0.262694,0.299497
2.645,-0.123969,0.217201,0.341171,-0.0538275,-0.268549,0.322376
2.65,-0.113952,0.271574,0.385526,-0.0910028,-0.288373,0.379376
2.655,-0.107114,0.376984,0.484098,-0.155809,-0.341336,0.497146
2.66,-0.113263,0.549775,0.663037,-0.25202,-0.448197,0.700217
2.665,-0.137709,0.786665,0.924374,-0.374675,-0.613194,0.987869
2.67,-0.181329,1.04535,1.22668,-0.498843,-0.812915,1.31176
2.675,-0.241553,1.24291,1.48446,-0.578132,-0.996514,1.57465
2.68,-0.309391,1.30189,1.61128,-0.573016,-1.1089,1.68191
2.685,-0.369448,1.2082,1.57765,-0.484253,-1.12415,1.60841
2.69,-0.406485,1.01824,1.42472,-0.353196,-1.05725,1.41044
2.695,-0.412919,0.80807,1.22099,-0.228141,-0.943337,1.17148
2.7,-0.389593,0.626362,1.01596,-0.136698,-0.811493,0.948192
2.705,-0.343645,0.486643,0.830288,-0.0825597,-0.67777,0.76033
2.71,-0.287548,0.384928,0.672476,-0.0562223,-0.55427,0.610492
2.715,-0.235108,0.314267,0.549375,-0.0457029,-0.452921,0.498624
2.72,-0.194353,0.26799,0.462343,-0.0425145,-0.379143,0.421658
2.725,-0.166355,0.239242,0.405597,-0.0420817,-0.330216,0.372298
2.73,-0.147625,0.221278,0.368903,-0.0425235,-0.298217,0.340741
2.735,-0.134366,0.209307,0.343674,-0.0432671,-0.275996,0.319263
2.74,-0.125248,0.201371,0.326619,-0.0439499,-0.260885,0.304835
2.745,-0.120073,0.196419,0.316492,-0.0440788,-0.252051,0.29613
2.75,-0.119729,0.192863,0.312592,-0.0422235,-0.249601,0.291824
2.755,-0.124469,0.190698,0.315166,-0.0382373,-0.253823,0.292061
2.76,-0.130393,0.190356,0.320749,-0.0346193,-0.260467,0.295086
2.765,-0.132345,0.19015,0.322494,-0.0333738,-0.262601,0.295975
2.77,-0.129625,0.189529,0.319154,-0.0345858,-0.259103,0.293688
2.775,-0.125001,0.1896,0.314601,-0.0372961,-0.253804,0.2911
2.78,-0.121085,0.191897,0.312982,-0.0408836,-0.250609,0.291492
2.785,-0.118145,0.196211,0.314356,-0.0450713,-0.249704,0.294775
2.79,-0.115623,0.200644,0.316266,-0.0490869,-0.249351,0.298438
2.795,-0.112324,0.20404,0.316364,-0.0529527,-0.247503,0.300456
2.8,-0.106332,0.206548,0.31288,-0.0578596,-0.242032,0.299891
2.805,-0.0981958,0.209393,0.307589,-0.0642,-0.23428,0.29848
2.81,-0.0905319,0.213447,0.303979,-0.0709653,-0.227771,0.298736
2.815,-0.0842428,0.218984,0.303227,-0.0777931,-0.223706,0.301499
2.82,-0.0798516,0.22564,0.305491,-0.0841707,-0.222478,0.306648
2.825,-0.0772641,0.232525,0.309789,-0.0896399,-0.223465,0.313105
2.83,-0.0741021,0.239363,0.313465,-0.0954133,-0.223762,0.319175
2.835,-0.0700307,0.247616,0.317647,-0.102529,-0.223826,0.326355
2.84,-0.0670153,0.257143,0.324158,-0.10977,-0.225844,0.335614
2.845,-0.0651483,0.266198,0.331347,-0.116076,-0.228916,0.344993
2.85,-0.0636028,0.273738,0.33734,-0.121321,-0.231485,0.352806
2.855,-0.0618928,0.279518,0.341411,-0.125646,-0.232847,0.358493
2.86,-0.058923,0.283734,0.342657,-0.129795,-0.231852,0.361647
2.865,-0.052598,0.286556,0.339154,-0.135076,-0.226178,0.361254
2.87,-0.0417258,0.288624,0.33035,-0.142547,-0.214818,0.357364
2.875,-0.0286065,0.290934,0.319541,-0.151455,-0.201003,0.352458
2.88,-0.016709,0.293829,0.310538,-0.159995,-0.188936,0.348931
2.885,-0.00631594,0.296152,0.302468,-0.167337,-0.178276,0.345613
2.89,0.00265996,0.295937,0.293278,-0.172395,-0.167788,0.340183
2.895,0.00890433,0.293868,0.284964,-0.174806,-0.159383,0.334189
2.9,0.0118198,0.291751,0.279931,-0.175266,-0.154794,0.33006
2.905,0.0117916,0.290982,0.279191,-0.174806,-0.154383,0.329189
2.91,0.00805269,0.291993,0.283941,-0.173232,-0.159284,0.332516
2.915,-0.0010456,0.294339,0.295384,-0.169333,-0.171144,0.340476
2.92,-0.0131905,0.2972,0.31039,-0.163973,-0.186819,0.350792
2.925,-0.0244567,0.299492,0.323948,-0.158791,-0.201152,0.359943
2.93,-0.0349109,0.299833,0.334744,-0.152953,-0.21342,0.366373
2.935,-0.0466286,0.297912,0.344541,-0.145079,-0.225842,0.370921
2.94,-0.0608618,0.294741,0.355603,-0.13503,-0.240446,0.375476
2.945,-0.0777972,0.290588,0.368385,-0.122855,-0.257604,0.380458
2.95,-0.0958211,0.285502,0.381323,-0.109512,-0.275479,0.384992
2.955,-0.111823,0.279406,0.391229,-0.0967541,-0.290437,0.387191
2.96,-0.12299,0.271787,0.394777,-0.0859079,-0.298933,0.384841
2.965,-0.129357,0.263234,0.392591,-0.0772941,-0.301347,0.378641
2.97,-0.132741,0.254714,0.387454,-0.0704211,-0.300335,0.370756
2.975,-0.134596,0.247607,0.382203,-0.0652466,-0.298374,0.363621
2.98,-0.136089,0.242071,0.37816,-0.0611891,-0.296902,0.358091
2.985,-0.137687,0.237902,0.375589,-0.0578588,-0.29634,0.354198
2.99,-0.138624,0.235171,0.373795,-0.0557413,-0.295845,0.351586
2.995,-0.136967,0.233481,0.370448,-0.0557226,-0.292956,0.348679
3,-0.131215,0.232037,0.363252,-0.0582096,-0.285481,0.34369
3.005,-0.123022,0.230706,0.353728,-0.0621718,-0.275251,0.337423
3.01,-0.11764,0.230421,0.348062,-0.065114,-0.268873,0.333987
3.015,-0.118184,0.232002,0.350186,-0.065713,-0.270413,0.336126
3.02,-0.123343,0.235331,0.358674,-0.0646567,-0.278292,0.342949
3.025,-0.130172,0.239653,0.369825,-0.0632086,-0.288673,0.351882
3.03,-0.13666,0.244251,0.380911,-0.0621176,-0.298819,0.360937
3.035,-0.142917,0.249026,0.391943,-0.0612624,-0.308801,0.370063
3.04,-0.148697,0.254615,0.403312,-0.0611518,-0.318702,0.379854
3.045,-0.1519,0.260009,0.411909,-0.0624167,-0.325515,0.387932
3.05,-0.151356,0.263479,0.414835,-0.064734,-0.32689,0.391624
3.055,-0.14891,0.265137,0.414047,-0.067104,-0.325023,0.392127
3.06,-0.146873,0.266151,0.413024,-0.0688656,-0.323256,0.392122
3.065,-0.145448,0.266791,0.41224,-0.0700573,-0.321981,0.392038
3.07,-0.143118,0.266634,0.409752,-0.0713122,-0.319199,0.390511
3.075,-0.140323,0.266046,0.406369,-0.0725859,-0.315633,0.388219
3.08,-0.13837,0.265729,0.404098,-0.0735308,-0.313194,0.386725
3.085,-0.136793,0.265575,0.402368,-0.0743522,-0.311284,0.385637
3.09,-0.134918,0.264183,0.3991,-0.0746309,-0.308316,0.382946
3.095,-0.132437,0.261255,0.393692,-0.0743735,-0.30376,0.378134
3.1,-0.131061,0.257624,0.388686,-0.0730711,-0.300076,0.373147
3.105,-0.133429,0.254301,0.38773,-0.0697855,-0.300891,0.370676
3.11,-0.138853,0.252052,0.390905,-0.0653551,-0.305856,0.371211
3.115,-0.143752,0.250622,0.394373,-0.0617012,-0.310687,0.372388
3.12,-0.144484,0.248441,0.392924,-0.0600196,-0.310272,0.370292
3.125,-0.141317,0.245202,0.386519,-0.0599783,-0.304746,0.364724
3.13,-0.138749,0.242035,0.380784,-0.0596324,-0.299952,0.359585
3.135,-0.141035,0.239582,0.380618,-0.0568961,-0.301177,0.358073
3.14,-0.147756,0.237879,0.385635,-0.052033,-0.307953,0.359986
3.145,-0.155603,0.236485,0.392089,-0.046697,-0.31621,0.362907
3.15,-0.161095,0.234718,0.395813,-0.042506,-0.321531,0.364037
3.155,-0.161834,0.232471,0.394306,-0.040782,-0.321087,0.36187
3.16,-0.158719,0.229809,0.388529,-0.0410438,-0.315954,0.356997
3.165,-0.154228,0.226928,0.381156,-0.0419735,-0.309104,0.351077
3.17,-0.149561,0.224483,0.374044,-0.0432563,-0.302303,0.34556
3.175,-0.145747,0.222502,0.368249,-0.0443144,-0.296756,0.34107
3.18,-0.143282,0.220539,0.363821,-0.0446042,-0.292776,0.33738
3.185,-0.141087,0.218583,0.35967,-0.0447423,-0.289112,0.333854
3.19,-0.138263,0.216878,0.355141,-0.0453886,-0.284866,0.330255
3.195,-0.137188,0.215484,0.352672,-0.0452039,-0.28282,0.328024
3.2,-0.140695,0.215508,0.356203,-0.0431937,-0.286884,0.330078
3.205,-0.147342,0.217184,0.364526,-0.0403231,-0.295527,0.33585
3.21,-0.151858,0.218698,0.370556,-0.0385901,-0.301616,0.340206
3.215,-0.151901,0.218147,0.370048,-0.0382466,-0.301347,0.339594
3.22,-0.151714,0.215927,0.36764,-0.0370734,-0.299849,0.336922
3.225,-0.155003,0.21399,0.368993,-0.0340558,-0.30253,0.336585
3.23,-0.159927,0.213307,0.373234,-0.0308186,-0.307821,0.338639
3.235,-0.162689,0.213879,0.376568,-0.0295545,-0.31134,0.340895
3.24,-0.161844,0.216096,0.37794,-0.0313222,-0.311645,0.342967
3.245,-0.159017,0.221832,0.380849,-0.0362664,-0.311691,0.347958
3.25,-0.155845,0.231911,0.387756,-0.0439167,-0.313848,0.357765
3.255,-0.153242,0.24576,0.399002,-0.0534151,-0.318838,0.372253
3.26,-0.152908,0.262011,0.414919,-0.0629909,-0.327835,0.390826
3.265,-0.154636,0.2795,0.434136,-0.0720899,-0.339928,0.412018
3.27,-0.155716,0.297366,0.453083,-0.0817814,-0.35149,0.433272
3.275,-0.15424,0.314793,0.469033,-0.0926951,-0.359847,0.452542
3.28,-0.149017,0.331774,0.480791,-0.105515,-0.36362,0.469135
3.285,-0.140509,0.347647,0.488157,-0.119591,-0.36296,0.482552
3.29,-0.133433,0.361159,0.494591,-0.131478,-0.36259,0.494067
3.295,-0.132526,0.372724,0.50525,-0.138679,-0.368219,0.506898
3.3,-0.136624,0.382995,0.519619,-0.142243,-0.378882,0.521124
3.305,-0.140442,0.391291,0.531733,-0.144828,-0.38808,0.532908
3.31,-0.1408,0.394545,0.535345,-0.1465,-0.390373,0.536873
3.315,-0.139599,0.387775,0.527375,-0.143284,-0.385077,0.528362
3.32,-0.139813,0.368908,0.508721,-0.132268,-0.374431,0.506699
3.325,-0.140901,0.340289,0.48119,-0.115117,-0.359164,0.474281
3.33,-0.140577,0.305429,0.446006,-0.0951774,-0.338664,0.433841
3.335,-0.138643,0.268861,0.407504,-0.0751816,-0.315318,0.390499
3.34,-0.137736,0.236607,0.374343,-0.0570834,-0.295649,0.352732
3.345,-0.140649,0.212901,0.35355,-0.0417142,-0.285326,0.32704
3.35,-0.146984,0.197278,0.344262,-0.0290371,-0.283621,0.312658
3.355,-0.153647,0.18729,0.340937,-0.019424,-0.285548,0.304972
3.36,-0.15758,0.180553,0.338133,-0.0132632,-0.2862,0.299464
3.365,-0.157457,0.175697,0.333154,-0.0105305,-0.283254,0.293785
3.37,-0.15315,0.171934,0.325084,-0.0108452,-0.276108,0.286953
3.375,-0.143853,0.170017,0.31387,-0.0151054,-0.264266,0.279372
3.38,-0.127868,0.177124,0.304992,-0.0284379,-0.249912,0.27835
3.385,-0.103318,0.206087,0.309405,-0.0593341,-0.238286,0.29762
3.39,-0.0758825,0.273617,0.349499,-0.114162,-0.245594,0.359756
3.395,-0.0609241,0.398804,0.459728,-0.195075,-0.300598,0.495673
3.4,-0.0716736,0.594303,0.665976,-0.30174,-0.425882,0.727622
3.405,-0.112714,0.845662,0.958377,-0.423168,-0.618394,1.04156
3.41,-0.180559,1.0926,1.27316,-0.52657,-0.839307,1.36588
3.415,-0.263452,1.24688,1.51033,-0.567781,-1.02409,1.59187
3.42,-0.345403,1.25044,1.59585,-0.522526,-1.12078,1.64331
3.425,-0.408215,1.11793,1.52615,-0.409756,-1.11681,1.52656
3.43,-0.436167,0.917095,1.35326,-0.277664,-1.03313,1.31079
3.435,-0.424118,0.715568,1.13969,-0.168269,-0.902862,1.07113
3.44,-0.380527,0.549346,0.929873,-0.0974673,-0.756559,0.854027
3.445,-0.32154,0.426011,0.747551,-0.0603168,-0.617239,0.677556
3.45,-0.262343,0.339831,0.602174,-0.0447376,-0.499129,0.543867
3.455,-0.212196,0.28158,0.493776,-0.0400591,-0.407593,0.447652
3.46,-0.175273,0.242208,0.417481,-0.0386453,-0.342226,0.380871
3.465,-0.151182,0.214408,0.365591,-0.0365036,-0.298359,0.334862
3.47,-0.135667,0.193416,0.329083,-0.0333414,-0.268323,0.301665
3.475,-0.124326,0.176853,0.30118,-0.0303264,-0.245666,0.275992
3.48,-0.114709,0.164394,0.279103,-0.0286859,-0.227367,0.256053
3.485,-0.108056,0.156494,0.26455,-0.0279653,-0.215124,0.243089
3.49,-0.106068,0.153659,0.259728,-0.0274767,-0.211192,0.238669
3.495,-0.10678,0.155253,0.262033,-0.0279858,-0.212934,0.24092
3.5,-0.108582,0.159568,0.26815,-0.0294366,-0.217507,0.246943
3.505,-0.111581,0.16416,0.275741,-0.0303566,-0.223621,0.253977
3.51,-0.11473,0.168064,0.282794,-0.0307922,-0.229511,0.260303
3.515,-0.116914,0.171866,0.28878,-0.0317263,-0.234227,0.265954
3.52,-0.117537,0.175895,0.293432,-0.0336935,-0.237273,0.270966
3.525,-0.116422,0.1798,0.296222,-0.036591,-0.23824,0.274831
3.53,-0.11232,0.182634,0.294954,-0.040596,-0.23514,0.275736
3.535,-0.104961,0.184948,0.28991,-0.0461806,-0.227979,0.274159
3.54,-0.0969892,0.188569,0.285558,-0.0528733,-0.220863,0.273737
3.545,-0.0912871,0.193915,0.285202,-0.059252,-0.217366,0.276618
3.55,-0.0892846,0.20017,0.289455,-0.0640198,-0.218665,0.282685
3.555,-0.0886453,0.206007,0.294652,-0.0677588,-0.221297,0.289056
3.56,-0.084361,0.210174,0.294535,-0.072638,-0.218755,0.291393
3.565,-0.0747772,0.213248,0.288026,-0.0799463,-0.209464,0.28941
3.57,-0.0617966,0.216102,0.277899,-0.0890882,-0.196123,0.285211
3.575,-0.0492139,0.219408,0.268622,-0.0982618,-0.183503,0.281765
3.58,-0.0412972,0.224227,0.265525,-0.105615,-0.177144,0.282758
3.585,-0.0391427,0.229847,0.26899,-0.110103,-0.1779,0.288003
3.59,-0.0399368,0.235352,0.275288,-0.112823,-0.181995,0.294818
3.595,-0.0400919,0.240926,0.281017,-0.115951,-0.185392,0.301344
3.6,-0.0371701,0.246601,0.283771,-0.120915,-0.185295,0.30621
3.605,-0.0301455,0.252926,0.283071,-0.128622,-0.180836,0.309458
3.61,-0.0202188,0.259367,0.279586,-0.138072,-0.173092,0.311165
3.615,-0.0108181,0.264893,0.275711,-0.14669,-0.165428,0.312118
3.62,-0.00487939,0.269121,0.274,-0.15256,-0.161011,0.313571
3.625,-0.00192316,0.27133,0.273253,-0.155542,-0.158873,0.314415
3.63,0.00133874,0.270714,0.269375,-0.15707,-0.154751,0.311821
3.635,0.00655985,0.267598,0.261038,-0.158285,-0.146923,0.305208
3.64,0.0117152,0.263849,0.252134,-0.159097,-0.138806,0.297903
3.645,0.0146753,0.261931,0.247256,-0.159699,-0.13428,0.293979
3.65,0.0144489,0.263023,0.248574,-0.160198,-0.135172,0.295371
3.655,0.00935246,0.266205,0.256852,-0.159093,-0.142894,0.301987
3.66,-1.83E-05,0.27078,0.270799,-0.156324,-0.156356,0.312681
3.665,-0.0103038,0.27503,0.285333,-0.152839,-0.170686,0.323526
3.67,-0.0185811,0.277462,0.296043,-0.149465,-0.181648,0.331113
3.675,-0.0251024,0.278029,0.303131,-0.146027,-0.189505,0.335532
3.68,-0.0340753,0.276831,0.310906,-0.140155,-0.199175,0.33933
3.685,-0.0487764,0.273956,0.322733,-0.130007,-0.214491,0.344498
3.69,-0.0676428,0.268977,0.33662,-0.11624,-0.233401,0.349641
3.695,-0.0875282,0.262137,0.349665,-0.10081,-0.252413,0.353224
3.7,-0.105778,0.25429,0.360068,-0.0857434,-0.268956,0.3547
3.705,-0.120423,0.247116,0.36754,-0.0731463,-0.281725,0.354872
3.71,-0.13004,0.241287,0.371328,-0.0642286,-0.289465,0.353693
3.715,-0.134142,0.235793,0.369936,-0.0586883,-0.291029,0.349718
3.72,-0.132579,0.229529,0.362108,-0.0559742,-0.285608,0.341582
3.725,-0.127131,0.223177,0.350308,-0.0554525,-0.275649,0.331102
3.73,-0.122207,0.218777,0.340984,-0.0557548,-0.267423,0.323178
3.735,-0.121127,0.218767,0.339894,-0.0563721,-0.266171,0.322543
3.74,-0.124074,0.222676,0.34675,-0.0569278,-0.27183,0.328758
3.745,-0.130047,0.227521,0.357569,-0.0562768,-0.281525,0.337802
3.75,-0.137498,0.231531,0.36903,-0.0542899,-0.292444,0.346734
3.755,-0.142927,0.233694,0.376621,-0.0524039,-0.299961,0.352365
3.76,-0.144208,0.23387,0.378078,-0.0517666,-0.301542,0.353309
3.765,-0.142716,0.234235,0.37695,-0.0528384,-0.300029,0.352868
3.77,-0.13994,0.236607,0.376547,-0.0558108,-0.298194,0.354005
3.775,-0.136122,0.240289,0.376411,-0.0601407,-0.295911,0.356051
3.78,-0.131403,0.244991,0.376395,-0.0655802,-0.293177,0.358757
3.785,-0.127992,0.250813,0.378806,-0.0709106,-0.2926,0.36351
3.79,-0.128796,0.256164,0.38496,-0.0735364,-0.296617,0.370153
3.795,-0.132258,0.259076,0.391333,-0.0732182,-0.302295,0.375514
3.8,-0.134413,0.25921,0.393623,-0.0720514,-0.304862,0.376913
3.805,-0.132952,0.256605,0.389557,-0.0713914,-0.30167,0.373062
3.81,-0.127797,0.251859,0.379656,-0.0716274,-0.292978,0.364605
3.815,-0.121932,0.247277,0.36921,-0.0723678,-0.283561,0.355929
3.82,-0.119725,0.244567,0.364293,-0.0720775,-0.279448,0.351526
3.825,-0.123194,0.243908,0.367102,-0.0696943,-0.283073,0.352767
3.83,-0.130868,0.244665,0.375533,-0.0657007,-0.292371,0.358071
3.835,-0.138877,0.245884,0.384761,-0.0617803,-0.302323,0.364103
3.84,-0.143762,0.246363,0.390124,-0.0592365,-0.308239,0.367476
3.845,-0.146484,0.246185,0.392669,-0.0575623,-0.31128,0.368843
3.85,-0.149261,0.245134,0.394395,-0.0553523,-0.31388,0.369232
3.855,-0.150895,0.242374,0.393269,-0.0528156,-0.314173,0.366988
3.86,-0.148846,0.237806,0.386652,-0.0513611,-0.30917,0.360531
3.865,-0.143876,0.232508,0.376385,-0.0511715,-0.300373,0.351544
3.87,-0.138773,0.227522,0.366294,-0.051239,-0.291601,0.34284
3.875,-0.134308,0.223235,0.357543,-0.0513423,-0.28397,0.335313
3.88,-0.12981,0.218861,0.348671,-0.0514136,-0.276251,0.327665
3.885,-0.126658,0.214302,0.34096,-0.0506008,-0.269979,0.32058
3.89,-0.128077,0.210979,0.339055,-0.0478634,-0.269699,0.317562
3.895,-0.134158,0.20994,0.344098,-0.0437527,-0.276121,0.319874
3.9,-0.140413,0.210387,0.3508,-0.0403993,-0.283602,0.324001
3.905,-0.143126,0.210768,0.353893,-0.0390532,-0.286954,0.326007
3.91,-0.143346,0.21073,0.354077,-0.0389042,-0.287187,0.326091
3.915,-0.143958,0.209526,0.353484,-0.0378555,-0.287198,0.325054
3.92,-0.14641,0.205842,0.352252,-0.034313,-0.287903,0.322216
3.925,-0.149779,0.20024,0.350019,-0.029134,-0.288558,0.317692
3.93,-0.151421,0.194711,0.346132,-0.0249935,-0.287262,0.312256
3.935,-0.149638,0.190698,0.340336,-0.0237059,-0.282886,0.306592
3.94,-0.146743,0.187659,0.334402,-0.023623,-0.277789,0.301412
3.945,-0.145703,0.184658,0.330362,-0.0224906,-0.274856,0.297347
3.95,-0.146357,0.182858,0.329215,-0.0210741,-0.274571,0.295645
3.955,-0.146643,0.182399,0.329042,-0.0206436,-0.274637,0.29528
3.96,-0.144849,0.181093,0.325941,-0.0209254,-0.271811,0.292736
3.965,-0.141152,0.179047,0.320199,-0.0218785,-0.266361,0.288239
3.97,-0.136355,0.177971,0.314326,-0.0240272,-0.260201,0.284228
3.975,-0.132048,0.179558,0.311607,-0.0274299,-0.256144,0.283574
3.98,-0.130086,0.184687,0.314773,-0.0315237,-0.256839,0.288363
3.985,-0.130328,0.193906,0.324234,-0.0367071,-0.262441,0.299148
3.99,-0.131695,0.207037,0.338732,-0.0434987,-0.271601,0.315099
3.995,-0.133659,0.222253,0.355912,-0.0511501,-0.282654,0.333804
4,-0.136028,0.236907,0.372935,-0.0582425,-0.29385,0.352092
4.005,-0.138749,0.250169,0.388918,-0.0643283,-0.304649,0.368977
4.01,-0.141489,0.263526,0.405015,-0.0704584,-0.315524,0.385983
4.015,-0.142368,0.278101,0.420468,-0.0783655,-0.324953,0.403319
4.02,-0.14014,0.294124,0.434264,-0.0889027,-0.331632,0.420534
4.025,-0.137831,0.310832,0.448663,-0.0998816,-0.338613,0.438494
4.03,-0.139011,0.327033,0.466044,-0.108555,-0.349329,0.457883
4.035,-0.143483,0.342078,0.485561,-0.114659,-0.363178,0.477837
4.04,-0.148067,0.354244,0.502311,-0.119036,-0.375496,0.494532
4.045,-0.149282,0.359638,0.50892,-0.121449,-0.380013,0.501462
4.05,-0.145081,0.355638,0.500719,-0.121565,-0.372853,0.494418
4.055,-0.135694,0.341334,0.477027,-0.118726,-0.353754,0.472481
4.06,-0.124712,0.316909,0.441622,-0.110965,-0.326973,0.437938
4.065,-0.116935,0.285632,0.402567,-0.097397,-0.299934,0.397331
4.07,-0.114385,0.251898,0.366283,-0.0793931,-0.277514,0.356907
4.075,-0.118101,0.219245,0.337346,-0.0583958,-0.262952,0.321348
4.08,-0.1265,0.191188,0.317688,-0.0373473,-0.256452,0.2938
4.085,-0.135155,0.170319,0.305474,-0.0203018,-0.254397,0.274699
4.09,-0.140891,0.156305,0.297197,-0.00889928,-0.25293,0.26183
4.095,-0.1441,0.147416,0.291517,-0.0019143,-0.251503,0.253418
4.1,-0.146646,0.142276,0.288922,0.00252329,-0.251475,0.248952
4.105,-0.148646,0.139074,0.28772,0.00552614,-0.251936,0.24641
4.11,-0.147527,0.136116,0.283643,0.00658825,-0.248936,0.242348
4.115,-0.139041,0.135646,0.274687,0.00196005,-0.238866,0.236906
4.12,-0.118559,0.147389,0.265948,-0.0166446,-0.221995,0.23864
4.125,-0.0870142,0.188753,0.275767,-0.0587388,-0.209452,0.268191
4.13,-0.0563729,0.281133,0.337505,-0.129765,-0.227406,0.357171
4.135,-0.0424389,0.443066,0.485505,-0.231302,-0.304808,0.536111
4.14,-0.0565442,0.676804,0.733348,-0.358107,-0.456044,0.814151
4.145,-0.10351,0.9463,1.04981,-0.486585,-0.665869,1.15245
4.15,-0.177626,1.16876,1.34639,-0.572233,-0.879891,1.45212
4.155,-0.262949,1.25583,1.51878,-0.57324,-1.02868,1.60192
4.16,-0.339098,1.17742,1.51652,-0.484007,-1.07134,1.55535
4.165,-0.386469,0.979536,1.366,-0.342407,-1.01179,1.3542
4.17,-0.393224,0.741901,1.13512,-0.201309,-0.882392,1.0837
4.175,-0.36204,0.529651,0.891691,-0.0967704,-0.723841,0.820612
4.18,-0.3109,0.374171,0.685071,-0.0365295,-0.575024,0.611554
4.185,-0.258597,0.276766,0.535363,-0.0104895,-0.458393,0.468882
4.19,-0.214834,0.222744,0.437578,-0.00456697,-0.37667,0.381237
4.195,-0.181915,0.193663,0.375578,-0.00678249,-0.321869,0.328651
4.2,-0.158396,0.174397,0.332792,-0.00923808,-0.283588,0.292826
4.205,-0.142331,0.158557,0.300888,-0.00936794,-0.255893,0.265261
4.21,-0.131487,0.1452,0.276687,-0.00791713,-0.23566,0.243577
4.215,-0.122553,0.134913,0.257466,-0.00713622,-0.219404,0.22654
4.22,-0.113242,0.12843,0.241672,-0.00876893,-0.204909,0.213678
4.225,-0.10541,0.125672,0.231082,-0.0116984,-0.194273,0.205972
4.23,-0.102778,0.125655,0.228433,-0.0132083,-0.191225,0.204433
4.235,-0.105535,0.127689,0.233224,-0.0127907,-0.195582,0.208373
4.24,-0.110332,0.130149,0.240482,-0.0114414,-0.202542,0.213984
4.245,-0.112867,0.131216,0.244083,-0.010594,-0.206085,0.216679
4.25,-0.110894,0.132006,0.2429,-0.0121892,-0.204263,0.216452
4.255,-0.104995,0.133763,0.238757,-0.0166093,-0.198465,0.215074
4.26,-0.0960534,0.136134,0.232187,-0.0231403,-0.18951,0.21265
4.265,-0.0865685,0.138874,0.225443,-0.0301986,-0.18014,0.210338
4.27,-0.0809625,0.141488,0.222451,-0.0349446,-0.175176,0.21012
4.275,-0.0803801,0.144048,0.224428,-0.0367584,-0.175981,0.212739
4.28,-0.0814027,0.146695,0.228097,-0.0376963,-0.17869,0.216386
4.285,-0.0797008,0.150292,0.229993,-0.040756,-0.178802,0.219558
4.29,-0.073926,0.155713,0.229639,-0.0472199,-0.175263,0.222483
4.295,-0.0662146,0.162568,0.228783,-0.0556299,-0.170317,0.225947
4.3,-0.0592352,0.169991,0.229226,-0.0639448,-0.166543,0.230488
4.305,-0.0545877,0.177908,0.232495,-0.0711987,-0.165747,0.236946
4.31,-0.0515386,0.186043,0.237581,-0.077656,-0.166923,0.244579
4.315,-0.0482066,0.193096,0.241303,-0.083652,-0.167148,0.2508
4.32,-0.0447508,0.198761,0.243512,-0.0889178,-0.166428,0.255346
4.325,-0.0416129,0.204159,0.245772,-0.0938462,-0.165922,0.259768
4.33,-0.0376478,0.209894,0.247542,-0.0994463,-0.164654,0.2641
4.335,-0.0319574,0.214772,0.24673,-0.105548,-0.1609,0.266448
4.34,-0.0249313,0.218793,0.243724,-0.111926,-0.155108,0.267034
4.345,-0.0152503,0.221806,0.237056,-0.119255,-0.145669,0.264924
4.35,-0.00325233,0.2235,0.226752,-0.12716,-0.132793,0.259953
4.355,0.00806642,0.22417,0.216104,-0.134082,-0.12011,0.254192
4.36,0.0158012,0.225107,0.209306,-0.139088,-0.11172,0.250809
4.365,0.0195363,0.226586,0.207049,-0.142099,-0.108261,0.250359
4.37,0.0233285,0.226033,0.202705,-0.143969,-0.103563,0.247532
4.375,0.0300797,0.222728,0.192648,-0.145958,-0.0938588,0.239817
4.38,0.0355389,0.219832,0.184293,-0.147438,-0.0858832,0.233322
4.385,0.0344339,0.22,0.185566,-0.146898,-0.0872563,0.234154
4.39,0.0251608,0.223057,0.197896,-0.143308,-0.0997286,0.243037
4.395,0.00972147,0.227099,0.217378,-0.136728,-0.11989,0.256619
4.4,-0.00713923,0.231599,0.238738,-0.129592,-0.141957,0.271549
4.405,-0.0206597,0.236462,0.257122,-0.124594,-0.160377,0.284971
4.41,-0.0300807,0.239672,0.269752,-0.121007,-0.173109,0.294116
4.415,-0.0387244,0.239564,0.278289,-0.115955,-0.183028,0.298982
4.42,-0.0493305,0.23666,0.28599,-0.108155,-0.193597,0.301752
4.425,-0.0620967,0.231814,0.29391,-0.0979862,-0.205541,0.303527
4.43,-0.0746245,0.225165,0.29979,-0.0869146,-0.216168,0.303083
4.435,-0.0825654,0.216667,0.299233,-0.0774238,-0.220431,0.297855
4.44,-0.0851144,0.207285,0.2924,-0.0705354,-0.217958,0.288493
4.445,-0.0869172,0.198948,0.285865,-0.0646809,-0.215226,0.279907
4.45,-0.091428,0.192114,0.283542,-0.058131,-0.216489,0.27462
4.455,-0.098735,0.186168,0.284903,-0.0504796,-0.221494,0.271973
4.46,-0.105472,0.180944,0.286416,-0.0435741,-0.226256,0.26983
4.465,-0.108497,0.176774,0.28527,-0.0394197,-0.227341,0.266761
4.47,-0.109715,0.173651,0.283367,-0.0369136,-0.226946,0.263859
4.475,-0.113499,0.172136,0.285635,-0.0338543,-0.23044,0.264294
4.48,-0.119847,0.173505,0.293352,-0.0309793,-0.23856,0.26954
4.485,-0.124478,0.177562,0.30204,-0.0306478,-0.246251,0.276898
4.49,-0.125542,0.181875,0.307417,-0.0325241,-0.249969,0.282493
4.495,-0.125518,0.184661,0.310179,-0.0341462,-0.25155,0.285696
4.5,-0.127187,0.186821,0.314007,-0.0344296,-0.254724,0.289153
4.505,-0.130109,0.189487,0.319596,-0.0342818,-0.259637,0.293919
4.51,-0.13078,0.193071,0.323851,-0.0359637,-0.262481,0.298445
4.515,-0.126802,0.197381,0.324183,-0.040749,-0.260376,0.301125
4.52,-0.11925,0.201699,0.320949,-0.0476023,-0.254149,0.301751
4.525,-0.112569,0.204764,0.317333,-0.0532287,-0.248204,0.301432
4.53,-0.110172,0.206013,0.316186,-0.0553337,-0.246158,0.301492
4.535,-0.11047,0.206584,0.317054,-0.0554919,-0.246831,0.302323
4.54,-0.110862,0.206638,0.317499,-0.0552964,-0.247314,0.302611
4.545,-0.111126,0.206392,0.317518,-0.0550016,-0.247478,0.302479
4.55,-0.11221,0.206013,0.318223,-0.0541575,-0.24851,0.302668
4.555,-0.113917,0.205164,0.319081,-0.0526812,-0.249991,0.302672
4.56,-0.115516,0.204081,0.319597,-0.0511333,-0.251212,0.302346
4.565,-0.11779,0.202669,0.320459,-0.0490048,-0.253023,0.302028
4.57,-0.120514,0.200599,0.321114,-0.046237,-0.254974,0.301211
4.575,-0.120961,0.198456,0.319416,-0.0447417,-0.254252,0.298993
4.58,-0.118626,0.195161,0.313787,-0.0441873,-0.249654,0.293841
4.585,-0.116881,0.189221,0.306102,-0.0417651,-0.24421,0.285975
4.59,-0.11707,0.182459,0.299529,-0.0377522,-0.240523,0.278275
4.595,-0.116996,0.177144,0.29414,-0.0347268,-0.237369,0.272096
4.6,-0.116487,0.173749,0.290236,-0.0330602,-0.234822,0.267882
4.605,-0.117081,0.172166,0.289247,-0.0318039,-0.234593,0.266397
4.61,-0.118645,0.171865,0.29051,-0.0307263,-0.236226,0.266952
4.615,-0.120841,0.172701,0.293542,-0.0299409,-0.239244,0.269185
4.62,-0.123678,0.174072,0.29775,-0.029095,-0.243312,0.272407
4.625,-0.127447,0.17428,0.301727,-0.0270393,-0.247784,0.274823
4.63,-0.132335,0.172793,0.305129,-0.0233584,-0.25257,0.275928
4.635,-0.136144,0.1706,0.306744,-0.0198934,-0.255701,0.275595
4.64,-0.135947,0.168457,0.304404,-0.0187696,-0.254237,0.273007
4.645,-0.132494,0.16633,0.298824,-0.0195352,-0.249022,0.268557
4.65,-0.128682,0.164471,0.293153,-0.0206625,-0.243547,0.264209
4.655,-0.126527,0.162708,0.289235,-0.0208892,-0.24004,0.260929
4.66,-0.127061,0.160615,0.287676,-0.019372,-0.239449,0.258821
4.665,-0.129106,0.158913,0.288019,-0.0172092,-0.240827,0.258036
4.67,-0.129451,0.157563,0.287015,-0.0162303,-0.240447,0.256677
4.675,-0.126306,0.15535,0.281656,-0.0167684,-0.235537,0.252306
4.68,-0.121125,0.152852,0.273977,-0.018318,-0.228112,0.24643
4.685,-0.116671,0.153328,0.269998,-0.0211639,-0.223243,0.244407
4.69,-0.115093,0.159709,0.274802,-0.0257595,-0.225105,0.250865
4.695,-0.117755,0.171926,0.289681,-0.0312757,-0.235233,0.266509
4.7,-0.122836,0.187665,0.310501,-0.0374289,-0.250187,0.287616
4.705,-0.123488,0.203493,0.32698,-0.0461908,-0.260078,0.306269
4.71,-0.116029,0.217234,0.333264,-0.0584306,-0.259399,0.31783
4.715,-0.107488,0.231048,0.338536,-0.0713369,-0.257512,0.328849
4.72,-0.106649,0.247241,0.35389,-0.0811711,-0.265892,0.347063
4.725,-0.114488,0.26557,0.380059,-0.0872272,-0.285527,0.372754
4.73,-0.125366,0.283965,0.409331,-0.0915675,-0.308707,0.400275
4.735,-0.132866,0.300445,0.433311,-0.0967518,-0.326882,0.423634
4.74,-0.133886,0.314314,0.4482,-0.10417,-0.336067,0.440238
4.745,-0.129989,0.324918,0.454907,-0.112542,-0.33769,0.450232
4.75,-0.124752,0.329747,0.454499,-0.118354,-0.334431,0.452784
4.755,-0.119761,0.324991,0.444752,-0.118489,-0.325922,0.444411
4.76,-0.114904,0.308615,0.423519,-0.111839,-0.310858,0.422698
4.765,-0.111394,0.281758,0.393152,-0.0983599,-0.2913,0.38966
4.77,-0.110801,0.248111,0.358912,-0.0792758,-0.271189,0.350465
4.775,-0.112716,0.213221,0.325937,-0.0580266,-0.253256,0.311283
4.78,-0.115151,0.181698,0.296849,-0.0384204,-0.237869,0.276289
4.785,-0.116349,0.155021,0.27137,-0.0223273,-0.22385,0.246177
4.79,-0.11607,0.134347,0.250417,-0.0105523,-0.211591,0.222143
4.795,-0.114932,0.121131,0.236063,-0.00357886,-0.202647,0.206226
4.8,-0.112183,0.113611,0.225794,-0.000824878,-0.195131,0.195956
4.805,-0.10772,0.108457,0.216177,-0.000425303,-0.187002,0.187427
4.81,-0.104167,0.10327,0.207437,0.000517766,-0.179904,0.179387
4.815,-0.10182,0.0980639,0.199883,0.00216831,-0.174188,0.17202
4.82,-0.0961125,0.0986604,0.194773,-0.00147104,-0.167943,0.169414
4.825,-0.08023,0.117423,0.197653,-0.0214734,-0.160436,0.181909
4.83,-0.0532834,0.171342,0.224626,-0.0681614,-0.160451,0.228612
4.835,-0.0266389,0.278817,0.305456,-0.145595,-0.191735,0.33733
4.84,-0.0175369,0.455037,0.472574,-0.252591,-0.282965,0.535556
4.845,-0.0376247,0.697411,0.735036,-0.380928,-0.446096,0.827023
4.85,-0.0894547,0.961462,1.05092,-0.503454,-0.658394,1.16185
4.855,-0.16573,1.1611,1.32683,-0.574679,-0.861731,1.43641
4.86,-0.251375,1.216,1.46737,-0.556924,-0.992318,1.54924
4.865,-0.326524,1.11168,1.43821,-0.453312,-1.01887,1.47218
4.87,-0.372187,0.904001,1.27619,-0.307043,-0.951689,1.25873
4.875,-0.378984,0.671964,1.05095,-0.169152,-0.825571,0.994724
4.88,-0.350831,0.472648,0.823479,-0.0703307,-0.677988,0.748319
4.885,-0.300006,0.33,0.630005,-0.0173172,-0.536942,0.554259
4.89,-0.2397,0.241203,0.480903,-0.000867365,-0.41604,0.416908
4.895,-0.183025,0.190267,0.373293,-0.00418118,-0.32119,0.325372
4.9,-0.139718,0.161636,0.301354,-0.0126548,-0.254653,0.267307
4.905,-0.111642,0.144607,0.25625,-0.0190323,-0.212403,0.231435
4.91,-0.0948978,0.133446,0.228343,-0.0222555,-0.186623,0.208879
4.915,-0.086893,0.125363,0.212256,-0.0222105,-0.172713,0.194924
4.92,-0.0871406,0.119339,0.206479,-0.0185897,-0.169522,0.188111
4.925,-0.0932465,0.115863,0.20911,-0.0130576,-0.174565,0.187623
4.93,-0.0997186,0.114698,0.214417,-0.00864835,-0.181366,0.190014
4.935,-0.10211,0.114208,0.216318,-0.00698448,-0.183844,0.190829
4.94,-0.100172,0.113994,0.214165,-0.0079799,-0.181483,0.189463
4.945,-0.0952086,0.114662,0.20987,-0.0112312,-0.176137,0.187368
4.95,-0.0895517,0.116212,0.205763,-0.0153921,-0.1705,0.185892
4.955,-0.0855726,0.118947,0.20452,-0.0192688,-0.167485,0.186754
4.96,-0.0826728,0.122271,0.204944,-0.022862,-0.166055,0.188917
4.965,-0.0779987,0.125368,0.203367,-0.0273489,-0.162447,0.189795
4.97,-0.0704836,0.128382,0.198865,-0.0334275,-0.155509,0.188936
4.975,-0.0616394,0.13198,0.193619,-0.040611,-0.147374,0.187985
4.98,-0.0535344,0.136987,0.190521,-0.0481814,-0.140906,0.189087
4.985,-0.0484302,0.14422,0.19265,-0.0553044,-0.139188,0.194492
4.99,-0.0484664,0.153385,0.201851,-0.0605748,-0.144521,0.205096
4.995,-0.0535251,0.163455,0.21698,-0.063468,-0.156176,0.219644
5,-0.0595178,0.173218,0.232735,-0.0656446,-0.168732,0.234377
5.005,-0.0624343,0.181937,0.244371,-0.068995,-0.177134,0.246129
5.01,-0.0612358,0.189193,0.250428,-0.0738758,-0.179939,0.253815
5.015,-0.0559456,0.194466,0.250412,-0.0799749,-0.176875,0.25685
5.02,-0.047397,0.197549,0.244947,-0.0866905,-0.168785,0.255475
5.025,-0.0370692,0.199545,0.236614,-0.0938054,-0.158011,0.251817
5.03,-0.0264821,0.202028,0.22851,-0.101351,-0.14722,0.248571
5.035,-0.01763,0.206181,0.223811,-0.10886,-0.139396,0.248256
5.04,-0.0113937,0.212309,0.223702,-0.115998,-0.135733,0.251731
5.045,-0.0058775,0.218349,0.224226,-0.12267,-0.13285,0.255521
5.05,0.00186546,0.222474,0.220608,-0.129522,-0.126291,0.255813
5.055,0.0129686,0.224538,0.211569,-0.137124,-0.114662,0.251786
5.06,0.0245791,0.22572,0.201141,-0.14451,-0.101938,0.246448
5.065,0.0338495,0.227126,0.193277,-0.150674,-0.0920454,0.24272
5.07,0.0416127,0.228787,0.187175,-0.156115,-0.0840402,0.240156
5.075,0.047842,0.229548,0.181706,-0.160151,-0.0772865,0.237438
5.08,0.05075,0.228834,0.178084,-0.161418,-0.0735164,0.234934
5.085,0.0489971,0.227323,0.178326,-0.159533,-0.0746679,0.234201
5.09,0.0415524,0.226341,0.184789,-0.154668,-0.0826977,0.237366
5.095,0.0292354,0.226673,0.197438,-0.147749,-0.0971117,0.244861
5.1,0.0152519,0.228194,0.212943,-0.140554,-0.114137,0.25469
5.105,0.00349419,0.231579,0.228084,-0.135719,-0.129667,0.265386
5.11,-0.00292569,0.236231,0.239157,-0.134699,-0.139766,0.274466
5.115,-0.00631344,0.239681,0.245995,-0.134735,-0.14567,0.280405
5.12,-0.0140931,0.240622,0.254715,-0.130787,-0.155197,0.285983
5.125,-0.0292887,0.238998,0.268287,-0.121076,-0.171805,0.292881
5.13,-0.0480976,0.235004,0.283101,-0.10791,-0.191218,0.299128
5.135,-0.065515,0.229154,0.294669,-0.0944769,-0.207952,0.302429
5.14,-0.0794885,0.22249,0.301978,-0.0825618,-0.22024,0.302802
5.145,-0.0901099,0.216409,0.306519,-0.0729187,-0.228994,0.301912
5.15,-0.0966785,0.211268,0.307946,-0.0661581,-0.23361,0.299768
5.155,-0.0997911,0.206702,0.306493,-0.0617252,-0.234568,0.296294
5.16,-0.10203,0.203037,0.305067,-0.0583168,-0.235037,0.293354
5.165,-0.104232,0.200385,0.304617,-0.0555139,-0.236049,0.291563
5.17,-0.104622,0.198776,0.303398,-0.0543596,-0.23557,0.28993
5.175,-0.102711,0.198341,0.301053,-0.0552121,-0.233113,0.288325
5.18,-0.100546,0.199012,0.299559,-0.0568494,-0.231001,0.28785
5.185,-0.101133,0.201071,0.302204,-0.0576996,-0.232866,0.290566
5.19,-0.104991,0.204504,0.309495,-0.0574539,-0.239304,0.296757
5.195,-0.110144,0.208356,0.3185,-0.0567024,-0.247478,0.304181
5.2,-0.114707,0.211799,0.326506,-0.0560558,-0.254734,0.31079
5.205,-0.117421,0.214571,0.331992,-0.0560892,-0.259469,0.315558
5.21,-0.118022,0.216518,0.33454,-0.0568664,-0.261287,0.318153
5.215,-0.115701,0.218462,0.334163,-0.0593293,-0.259729,0.319058
5.22,-0.108356,0.220338,0.328694,-0.0646529,-0.252331,0.316984
5.225,-0.0978925,0.221113,0.319005,-0.0711411,-0.240696,0.311837
5.23,-0.0910975,0.22178,0.312877,-0.0754493,-0.233235,0.308684
5.235,-0.0925629,0.223892,0.316454,-0.0758226,-0.236146,0.311969
5.24,-0.100319,0.227717,0.328036,-0.0735529,-0.247311,0.320864
5.245,-0.107951,0.231926,0.339877,-0.0715764,-0.258554,0.33013
5.25,-0.109439,0.235337,0.344776,-0.0726872,-0.262241,0.334928
5.255,-0.104288,0.237259,0.341546,-0.0767708,-0.257402,0.334173
5.26,-0.0961081,0.23598,0.332089,-0.0807553,-0.247219,0.327975
5.265,-0.0895795,0.230843,0.320422,-0.0815582,-0.236714,0.318273
5.27,-0.0886726,0.224705,0.313378,-0.0785384,-0.232124,0.310662
5.275,-0.0942653,0.220842,0.315107,-0.073079,-0.236351,0.30943
5.28,-0.103561,0.219405,0.322966,-0.0668822,-0.246255,0.313138
5.285,-0.112562,0.219217,0.331779,-0.061577,-0.25654,0.318117
5.29,-0.118737,0.219693,0.33843,-0.058287,-0.263946,0.322233
5.295,-0.121632,0.220087,0.341718,-0.0568429,-0.267515,0.324358
5.3,-0.121983,0.218385,0.340368,-0.0556575,-0.266939,0.322596
5.305,-0.119996,0.21455,0.334545,-0.0545907,-0.262429,0.31702
5.31,-0.11511,0.210145,0.325255,-0.0548682,-0.254245,0.309113
5.315,-0.108254,0.206379,0.314632,-0.0566526,-0.244153,0.300806
5.32,-0.101703,0.203003,0.304706,-0.0584858,-0.23464,0.293126
5.325,-0.0969506,0.198942,0.295892,-0.0588846,-0.226808,0.285693
5.33,-0.0952628,0.193811,0.289074,-0.0568966,-0.221897,0.278793
5.335,-0.0977145,0.189546,0.287261,-0.0530191,-0.222265,0.275285
5.34,-0.103058,0.187464,0.290522,-0.0487315,-0.227233,0.275965
5.345,-0.107735,0.18697,0.294704,-0.0457463,-0.232348,0.278095
5.35,-0.107603,0.186887,0.29449,-0.0457747,-0.232149,0.277923
5.355,-0.102824,0.186335,0.289158,-0.0482151,-0.226311,0.274526
5.36,-0.0988415,0.185341,0.284183,-0.0499407,-0.221139,0.27108
5.365,-0.0995875,0.184659,0.284247,-0.0491163,-0.221607,0.270723
5.37,-0.104833,0.184804,0.289637,-0.0461713,-0.227747,0.273918
5.375,-0.113256,0.185276,0.298533,-0.0415809,-0.237746,0.279327
5.38,-0.123104,0.185452,0.308556,-0.035997,-0.249218,0.285215
5.385,-0.13143,0.185561,0.316991,-0.0312526,-0.258895,0.290148
5.39,-0.135411,0.186416,0.321827,-0.0294477,-0.263986,0.293434
5.395,-0.13426,0.190239,0.324499,-0.0323197,-0.264865,0.297184
5.4,-0.12908,0.199115,0.328195,-0.040435,-0.264008,0.304443
5.405,-0.121134,0.212161,0.333294,-0.0525544,-0.262364,0.314919
5.41,-0.110998,0.226758,0.337756,-0.0668344,-0.259088,0.325922
5.415,-0.100777,0.240813,0.34159,-0.0808502,-0.255401,0.336251
5.42,-0.0934663,0.25484,0.348306,-0.0931688,-0.255057,0.348226
5.425,-0.0907331,0.270308,0.361041,-0.103678,-0.260832,0.36451
5.43,-0.0934402,0.287203,0.380644,-0.111869,-0.273712,0.385581
5.435,-0.0990043,0.304349,0.403353,-0.118556,-0.290036,0.408592
5.44,-0.103327,0.320281,0.423608,-0.125258,-0.304226,0.429484
5.445,-0.106128,0.334033,0.440161,-0.131581,-0.3154,0.446981
5.45,-0.10992,0.34576,0.455681,-0.136162,-0.32655,0.462712
5.455,-0.114489,0.356235,0.470723,-0.139572,-0.337872,0.477444
5.46,-0.116519,0.363186,0.479705,-0.142413,-0.34423,0.486643
5.465,-0.114113,0.361442,0.475554,-0.142795,-0.340444,0.48324
5.47,-0.108966,0.346978,0.455943,-0.137416,-0.32615,0.463566
5.475,-0.105067,0.320323,0.42539,-0.124278,-0.30626,0.430538
5.48,-0.105065,0.285546,0.39061,-0.104201,-0.286178,0.390379
5.485,-0.108861,0.248583,0.357444,-0.0806688,-0.269221,0.34989
5.49,-0.114631,0.215501,0.330133,-0.0582372,-0.256785,0.315022
5.495,-0.120113,0.189763,0.309876,-0.0402122,-0.248254,0.288467
5.5,-0.123315,0.171755,0.29507,-0.0279664,-0.241555,0.269521
5.505,-0.123477,0.160509,0.283986,-0.0213807,-0.235249,0.256629
5.51,-0.119822,0.153248,0.27307,-0.0192982,-0.226837,0.246135
5.515,-0.112543,0.147398,0.259941,-0.0201238,-0.215053,0.235177
5.52,-0.105496,0.141945,0.247441,-0.0210435,-0.203768,0.224812
5.525,-0.101055,0.137099,0.238153,-0.0208101,-0.195842,0.216652
5.53,-0.094752,0.136842,0.231594,-0.0243005,-0.188416,0.212716
5.535,-0.0801732,0.151452,0.231625,-0.041153,-0.180017,0.22117
5.54,-0.0589862,0.197015,0.256001,-0.0796908,-0.181858,0.261549
5.545,-0.0424938,0.291685,0.334179,-0.143871,-0.217472,0.361343
5.55,-0.0441681,0.450829,0.494997,-0.234786,-0.311287,0.546073
5.555,-0.0705664,0.67728,0.747847,-0.350286,-0.472511,0.822797
5.56,-0.119333,0.939696,1.05903,-0.473637,-0.680328,1.15396
5.565,-0.184399,1.16174,1.34613,-0.564265,-0.883654,1.44792
5.57,-0.257829,1.2585,1.51633,-0.577739,-1.02431,1.60205
5.575,-0.326416,1.1971,1.52352,-0.50269,-1.06806,1.57075
5.58,-0.37245,1.01883,1.39128,-0.37319,-1.01829,1.39148
5.585,-0.384218,0.800195,1.18441,-0.240164,-0.905649,1.14581
5.59,-0.362795,0.600647,0.963442,-0.137324,-0.765703,0.903027
5.595,-0.318276,0.445929,0.764205,-0.0737003,-0.624971,0.698671
5.6,-0.262974,0.338535,0.601508,-0.043625,-0.499109,0.542734
5.605,-0.208414,0.270053,0.478467,-0.035587,-0.396571,0.432158
5.61,-0.162705,0.228042,0.390747,-0.0377226,-0.319536,0.357258
5.615,-0.12908,0.201274,0.330353,-0.0416811,-0.265254,0.306935
5.62,-0.106941,0.182683,0.289624,-0.0437298,-0.228956,0.272686
5.625,-0.0941078,0.168898,0.263006,-0.0431799,-0.206179,0.249359
5.63,-0.0885546,0.158589,0.247144,-0.0404344,-0.193815,0.23425
5.635,-0.0876285,0.151251,0.23888,-0.0367326,-0.188509,0.225242
5.64,-0.0868606,0.146785,0.233645,-0.0345971,-0.185044,0.219641
5.645,-0.083054,0.144284,0.227338,-0.0353514,-0.179205,0.214556
5.65,-0.0771312,0.142787,0.219918,-0.0379064,-0.171502,0.209408
5.655,-0.0728593,0.142646,0.215505,-0.0402911,-0.166487,0.206778
5.66,-0.0727517,0.144738,0.21749,-0.0415616,-0.167571,0.209133
5.665,-0.0749824,0.149272,0.224255,-0.0428914,-0.172765,0.215656
5.67,-0.0756692,0.155042,0.230711,-0.045826,-0.176889,0.222715
5.675,-0.0737468,0.16039,0.234137,-0.0500237,-0.177757,0.227781
5.68,-0.0700114,0.164744,0.234755,-0.0546937,-0.175957,0.230651
5.685,-0.0642854,0.167674,0.231959,-0.0596914,-0.171037,0.230728
5.69,-0.0559775,0.169333,0.22531,-0.0654458,-0.162402,0.227847
5.695,-0.0456732,0.170879,0.216552,-0.0722876,-0.151396,0.223684
5.7,-0.0360551,0.173845,0.2099,-0.0795529,-0.142002,0.221555
5.705,-0.0305368,0.1792,0.209737,-0.0858306,-0.138722,0.224553
5.71,-0.0292676,0.187036,0.216304,-0.0910878,-0.141781,0.232869
5.715,-0.0301194,0.195038,0.225157,-0.0952155,-0.147384,0.242599
5.72,-0.0321689,0.201743,0.233912,-0.0979037,-0.153622,0.251526
5.725,-0.0354286,0.208807,0.244236,-0.1001,-0.161464,0.261565
5.73,-0.0380676,0.217684,0.255752,-0.103702,-0.169637,0.273338
5.735,-0.0371584,0.22668,0.263839,-0.109421,-0.173781,0.283201
5.74,-0.0310796,0.233639,0.264719,-0.116948,-0.170779,0.287727
5.745,-0.0195667,0.238197,0.257763,-0.126226,-0.160117,0.286343
5.75,-0.00355843,0.241229,0.244787,-0.137219,-0.143382,0.280601
5.755,0.0130369,0.244986,0.231949,-0.14897,-0.126389,0.275359
5.76,0.025138,0.25064,0.225502,-0.159221,-0.11568,0.274901
5.765,0.0315858,0.256353,0.224767,-0.166241,-0.111533,0.277774
5.77,0.035204,0.260207,0.225003,-0.170556,-0.109581,0.280136
5.775,0.0389915,0.26207,0.223078,-0.173818,-0.106283,0.2801
5.78,0.0432511,0.262824,0.219572,-0.176712,-0.101799,0.278511
5.785,0.0460805,0.263715,0.217634,-0.17886,-0.0990465,0.277907
5.79,0.0468172,0.26495,0.218133,-0.179999,-0.0989091,0.278908
5.795,0.0479381,0.265528,0.21759,-0.18098,-0.0979486,0.278928
5.8,0.0511654,0.265521,0.214356,-0.182839,-0.094218,0.277057
5.805,0.0524809,0.266646,0.214165,-0.184248,-0.0933483,0.277596
5.81,0.0452836,0.270131,0.224848,-0.182105,-0.103671,0.285776
5.815,0.0290709,0.27582,0.246749,-0.176029,-0.125676,0.301705
5.82,0.00931817,0.281903,0.272585,-0.168136,-0.151997,0.320133
5.825,-0.00929369,0.285238,0.294532,-0.159316,-0.175414,0.33473
5.83,-0.0249634,0.284452,0.309416,-0.149816,-0.193054,0.34287
5.835,-0.0364691,0.281022,0.317492,-0.141193,-0.204359,0.345552
5.84,-0.0446609,0.27626,0.320921,-0.133714,-0.211069,0.344783
5.845,-0.0531935,0.27046,0.323654,-0.125439,-0.217573,0.343012
5.85,-0.0640027,0.263668,0.327671,-0.115277,-0.226133,0.34141
5.855,-0.0746366,0.255041,0.329677,-0.104156,-0.233431,0.337587
5.86,-0.0820339,0.24457,0.326604,-0.0938403,-0.235927,0.329767
5.865,-0.0860876,0.233927,0.320015,-0.0853552,-0.234463,0.319818
5.87,-0.0878605,0.225578,0.313439,-0.0795114,-0.23169,0.311201
5.875,-0.0881367,0.2212,0.309336,-0.0768239,-0.229481,0.306305
5.88,-0.0875666,0.220019,0.307586,-0.0764715,-0.228141,0.304613
5.885,-0.0864576,0.220228,0.306685,-0.0772322,-0.226981,0.304213
5.89,-0.0850695,0.221377,0.306447,-0.0786972,-0.226042,0.304739
5.895,-0.0837546,0.224004,0.307759,-0.0809731,-0.22604,0.307013
5.9,-0.0839071,0.228081,0.311988,-0.0832388,-0.22857,0.311809
5.905,-0.0873504,0.232514,0.319864,-0.0838099,-0.235105,0.318915
5.91,-0.094045,0.236496,0.330541,-0.0822443,-0.245135,0.327379
5.915,-0.101089,0.240502,0.34159,-0.08049,-0.255581,0.336071
5.92,-0.105892,0.244955,0.350847,-0.0802879,-0.263698,0.343986
5.925,-0.107222,0.249513,0.356735,-0.0821516,-0.267865,0.350017
5.93,-0.1035,0.253426,0.356926,-0.0865596,-0.265827,0.352387
5.935,-0.0957854,0.255887,0.351673,-0.0924349,-0.25834,0.350775
5.94,-0.0883683,0.256904,0.345272,-0.0973039,-0.250362,0.347666
5.945,-0.0846253,0.257001,0.341626,-0.0995211,-0.246096,0.345617
5.95,-0.0861417,0.256741,0.342883,-0.0984955,-0.247697,0.346193
5.955,-0.092261,0.257293,0.349554,-0.0952812,-0.255082,0.350363
5.96,-0.099575,0.259006,0.358581,-0.0920476,-0.264517,0.356564
5.965,-0.103456,0.26104,0.364497,-0.0909813,-0.270172,0.361154
5.97,-0.100196,0.260565,0.360761,-0.0925894,-0.266133,0.358722
5.975,-0.0912204,0.256426,0.347647,-0.0953817,-0.25338,0.348762
5.98,-0.0825194,0.251686,0.334206,-0.0976685,-0.240596,0.338265
5.985,-0.078571,0.248414,0.326985,-0.098059,-0.234148,0.332207
5.99,-0.0805146,0.24676,0.327275,-0.0959819,-0.235437,0.331419
5.995,-0.0850156,0.245605,0.330621,-0.0927162,-0.239968,0.332684
6,-0.0882908,0.243043,0.331333,-0.089346,-0.24227,0.331616
6.005,-0.0912514,0.238705,0.329956,-0.0851323,-0.243184,0.328317
6.01,-0.0952203,0.234682,0.329902,-0.0805181,-0.245444,0.325962
6.015,-0.0977081,0.232065,0.329773,-0.0775709,-0.246806,0.324377
6.02,-0.0972203,0.229786,0.327006,-0.0765366,-0.244927,0.321463
6.025,-0.0952985,0.227717,0.323016,-0.0764519,-0.241514,0.317966
6.03,-0.094296,0.2263,0.320596,-0.0762127,-0.239538,0.315751
6.035,-0.0952614,0.225311,0.320572,-0.0750841,-0.240082,0.315166
6.04,-0.0966792,0.22352,0.320199,-0.0732315,-0.240685,0.313916
6.045,-0.0980145,0.219658,0.317672,-0.0702309,-0.239997,0.310228
6.05,-0.100911,0.214657,0.315568,-0.0656712,-0.240455,0.306126
6.055,-0.10469,0.210852,0.315542,-0.0612921,-0.242621,0.303913
6.06,-0.10668,0.209092,0.315772,-0.0591273,-0.243903,0.30303
6.065,-0.104785,0.208038,0.312823,-0.0596128,-0.241106,0.300719
6.07,-0.100137,0.206226,0.306362,-0.0612507,-0.234692,0.295943
6.075,-0.0984525,0.204214,0.302667,-0.0610614,-0.231586,0.292648
6.08,-0.101278,0.203151,0.304429,-0.0588162,-0.234235,0.293051
6.085,-0.102024,0.202461,0.304484,-0.0579874,-0.234697,0.292685
6.09,-0.0980906,0.201407,0.299497,-0.0596494,-0.229547,0.289197
6.095,-0.0940945,0.200248,0.294343,-0.061288,-0.224264,0.285552
6.1,-0.0922604,0.199073,0.291333,-0.061668,-0.221468,0.283136
6.105,-0.0914055,0.199268,0.290674,-0.0622745,-0.220594,0.282868
6.11,-0.0922622,0.204142,0.296404,-0.0645937,-0.224396,0.28899
6.115,-0.0970467,0.21446,0.311507,-0.0677886,-0.235878,0.303667
6.12,-0.105709,0.228643,0.334352,-0.0709758,-0.25407,0.325045
6.125,-0.114585,0.245641,0.360226,-0.075665,-0.274132,0.349797
6.13,-0.119485,0.26368,0.383165,-0.0832508,-0.290205,0.373456
6.135,-0.119638,0.280838,0.400475,-0.0930689,-0.300287,0.393356
6.14,-0.116833,0.296354,0.413187,-0.103646,-0.306007,0.409653
6.145,-0.11188,0.31016,0.42204,-0.114477,-0.308259,0.422736
6.15,-0.103408,0.324277,0.427685,-0.127518,-0.306627,0.434145
6.155,-0.0927264,0.339921,0.432647,-0.142718,-0.303325,0.446042
6.16,-0.085498,0.355199,0.440697,-0.155712,-0.303799,0.459511
6.165,-0.0857672,0.368764,0.454531,-0.163388,-0.311941,0.475329
6.17,-0.0915617,0.378829,0.470391,-0.165854,-0.324443,0.490297
6.175,-0.0967218,0.380554,0.477276,-0.163871,-0.331398,0.495269
6.18,-0.0971486,0.36863,0.465778,-0.15674,-0.325006,0.481745
6.185,-0.0936152,0.343541,0.437156,-0.144295,-0.306441,0.450735
6.19,-0.0884526,0.309981,0.398434,-0.1279,-0.281104,0.409003
6.195,-0.0843263,0.273038,0.357364,-0.108953,-0.25501,0.363963
6.2,-0.0855851,0.238713,0.324298,-0.0884084,-0.236646,0.325054
6.205,-0.0940485,0.212128,0.306177,-0.0681734,-0.23107,0.299243
6.21,-0.106512,0.194187,0.300699,-0.0506197,-0.235103,0.285723
6.215,-0.118073,0.181704,0.299778,-0.0367373,-0.241246,0.277984
6.22,-0.12563,0.171985,0.297615,-0.0267628,-0.244361,0.271123
6.225,-0.128137,0.164559,0.292696,-0.0210279,-0.242968,0.263996
6.23,-0.124697,0.15892,0.283617,-0.0197586,-0.23574,0.255499
6.235,-0.114947,0.153875,0.268822,-0.0224748,-0.221569,0.244044
6.24,-0.099851,0.150204,0.250056,-0.0290715,-0.202019,0.23109
6.245,-0.0791393,0.156348,0.235487,-0.0445763,-0.18165,0.226226
6.25,-0.052577,0.190262,0.242839,-0.0794923,-0.170558,0.250051
6.255,-0.0280996,0.274415,0.302515,-0.14221,-0.19088,0.333091
6.26,-0.0199627,0.427747,0.44771,-0.235435,-0.270011,0.505445
6.265,-0.0386616,0.655783,0.694444,-0.356295,-0.423259,0.779554
6.27,-0.0858196,0.929273,1.01509,-0.486968,-0.635612,1.12258
6.275,-0.15593,1.17265,1.32858,-0.587006,-0.857084,1.44409
6.28,-0.237021,1.29347,1.53049,-0.609939,-1.02047,1.63041
6.285,-0.312136,1.24452,1.55666,-0.538314,-1.07895,1.61726
6.29,-0.363634,1.05737,1.42101,-0.400529,-1.03036,1.43089
6.295,-0.38019,0.813133,1.19332,-0.24996,-0.908468,1.15843
6.3,-0.3605,0.586142,0.946642,-0.130274,-0.754678,0.884952
6.305,-0.314882,0.414039,0.728921,-0.0572483,-0.60264,0.659888
6.31,-0.259003,0.303212,0.562215,-0.0255235,-0.474131,0.499654
6.315,-0.205325,0.241243,0.446568,-0.0207373,-0.376371,0.397108
6.32,-0.161053,0.208638,0.369691,-0.027473,-0.306425,0.333898
6.325,-0.129045,0.189018,0.318064,-0.0346253,-0.258139,0.292764
6.33,-0.108831,0.174245,0.283076,-0.0377664,-0.226268,0.264034
6.335,-0.0971381,0.162419,0.259557,-0.03769,-0.205938,0.243628
6.34,-0.0896189,0.153306,0.242925,-0.03677,-0.191994,0.228764
6.345,-0.0840133,0.146345,0.230359,-0.0359874,-0.181503,0.21749
6.35,-0.0807317,0.141364,0.222095,-0.0350058,-0.174837,0.209843
6.355,-0.0808767,0.138491,0.219368,-0.0332638,-0.173346,0.20661
6.36,-0.0838276,0.137986,0.221813,-0.0312682,-0.176462,0.20773
6.365,-0.0871097,0.139479,0.226589,-0.0302357,-0.181114,0.21135
6.37,-0.0883618,0.142023,0.230385,-0.0309814,-0.184028,0.21501
6.375,-0.0854428,0.145126,0.230569,-0.0344584,-0.182449,0.216908
6.38,-0.078487,0.147905,0.226392,-0.0400783,-0.176022,0.2161
6.385,-0.071707,0.149799,0.221505,-0.0450861,-0.169286,0.214372
6.39,-0.0685238,0.151634,0.220158,-0.0479838,-0.16667,0.214654
6.395,-0.0676997,0.154056,0.221756,-0.049858,-0.167117,0.216975
6.4,-0.0655127,0.158018,0.223531,-0.0534079,-0.166879,0.220287
6.405,-0.0596914,0.163127,0.222818,-0.0597185,-0.163107,0.222825
6.41,-0.0523164,0.168528,0.220845,-0.0670949,-0.15771,0.224804
6.415,-0.0470953,0.174461,0.221556,-0.0735346,-0.155106,0.228641
6.42,-0.0452962,0.181295,0.226591,-0.0785189,-0.156974,0.235493
6.425,-0.0449808,0.188779,0.23376,-0.083022,-0.160931,0.243953
6.43,-0.0435243,0.196149,0.239673,-0.0881177,-0.163504,0.251622
6.435,-0.0412872,0.203324,0.244611,-0.093552,-0.165063,0.258615
6.44,-0.03841,0.211297,0.249707,-0.0998166,-0.166345,0.266161
6.445,-0.0332479,0.219799,0.253047,-0.107706,-0.165293,0.272998
6.45,-0.0254885,0.228656,0.254145,-0.117299,-0.161446,0.278745
6.455,-0.0165253,0.237857,0.254382,-0.127786,-0.156408,0.284194
6.46,-0.00638759,0.245577,0.251964,-0.138096,-0.14916,0.287256
6.465,0.00697722,0.250571,0.243594,-0.148695,-0.13661,0.285306
6.47,0.0235387,0.251947,0.228408,-0.159052,-0.118281,0.277333
6.475,0.040551,0.250113,0.209562,-0.167815,-0.0975784,0.265393
6.48,0.0514092,0.247539,0.19613,-0.172598,-0.0835546,0.256152
6.485,0.0499507,0.24766,0.197709,-0.171825,-0.0853082,0.257134
6.49,0.0385908,0.251635,0.213045,-0.167562,-0.100721,0.268283
6.495,0.0251132,0.258151,0.233038,-0.163543,-0.120045,0.283588
6.5,0.0169328,0.264462,0.24753,-0.162464,-0.133135,0.295599
6.505,0.0148654,0.26792,0.253055,-0.163266,-0.137519,0.300785
6.51,0.0131122,0.268019,0.254907,-0.162311,-0.1396,0.301912
6.515,0.00790966,0.265709,0.257799,-0.157974,-0.144274,0.302247
6.52,0.000740112,0.26308,0.26234,-0.152317,-0.151035,0.303351
6.525,-0.00418098,0.261801,0.265982,-0.148737,-0.155978,0.304715
6.53,-0.00557484,0.261419,0.266994,-0.147712,-0.157368,0.305079
6.535,-0.007084,0.259663,0.266747,-0.145826,-0.158096,0.303922
6.54,-0.0119346,0.255994,0.267929,-0.140908,-0.161579,0.302487
6.545,-0.0195218,0.250648,0.270169,-0.133441,-0.167253,0.300694
6.55,-0.0277256,0.244209,0.271935,-0.124987,-0.173009,0.297996
6.555,-0.0369689,0.237895,0.274864,-0.116005,-0.180037,0.296042
6.56,-0.0477862,0.232622,0.280408,-0.106715,-0.189483,0.296198
6.565,-0.0583394,0.227918,0.286257,-0.0979062,-0.198953,0.296859
6.57,-0.0676232,0.222608,0.290231,-0.0894804,-0.206607,0.296087
6.575,-0.0756089,0.216828,0.292437,-0.0815327,-0.212491,0.294024
6.58,-0.0807605,0.210436,0.291197,-0.0748682,-0.214749,0.289618
6.585,-0.08346,0.202833,0.286293,-0.0689199,-0.213477,0.282397
6.59,-0.0885506,0.196443,0.284994,-0.0622918,-0.215666,0.277958
6.595,-0.0984655,0.194387,0.292853,-0.0553805,-0.225928,0.281308
6.6,-0.109748,0.196271,0.306019,-0.0499544,-0.240043,0.289997
6.605,-0.117755,0.200349,0.318105,-0.0476856,-0.251644,0.29933
6.61,-0.1197,0.204758,0.324458,-0.0491083,-0.256435,0.305543
6.615,-0.115181,0.207936,0.323117,-0.0535521,-0.253052,0.306604
6.62,-0.107457,0.20914,0.316597,-0.0587066,-0.244828,0.303534
6.625,-0.101155,0.209231,0.310386,-0.0623974,-0.237603,0.300001
6.63,-0.0986635,0.210309,0.308973,-0.0644588,-0.235349,0.299808
6.635,-0.0993482,0.212827,0.312176,-0.0655173,-0.237593,0.303111
6.64,-0.0996487,0.215147,0.314796,-0.0666831,-0.23928,0.305963
6.645,-0.0945176,0.216231,0.310749,-0.0702713,-0.23398,0.304252
6.65,-0.0833699,0.215836,0.299206,-0.0764793,-0.22088,0.297359
6.655,-0.073761,0.21588,0.289641,-0.0820523,-0.20981,0.291862
6.66,-0.0736938,0.218929,0.292622,-0.0838513,-0.211493,0.295344
6.665,-0.0824985,0.224164,0.306662,-0.0817903,-0.224682,0.306472
6.67,-0.0927837,0.229536,0.322319,-0.0789538,-0.23966,0.318614
6.675,-0.0988153,0.233054,0.331869,-0.0775028,-0.248656,0.326159
6.68,-0.100383,0.23448,0.334863,-0.0774212,-0.251289,0.328711
6.685,-0.100649,0.233425,0.334075,-0.0766583,-0.250988,0.327646
6.69,-0.10095,0.229039,0.329989,-0.0739525,-0.248802,0.322755
6.695,-0.101154,0.221891,0.323045,-0.0697078,-0.244911,0.314619
6.7,-0.101809,0.215039,0.316848,-0.0653729,-0.241712,0.307085
6.705,-0.102777,0.212159,0.314936,-0.063152,-0.241167,0.304319
6.71,-0.102895,0.213234,0.316129,-0.0637039,-0.241924,0.305628
6.715,-0.101863,0.215504,0.317367,-0.0656109,-0.242042,0.307653
6.72,-0.100364,0.217453,0.317817,-0.0676014,-0.241437,0.309038
6.725,-0.099316,0.218552,0.317868,-0.0688408,-0.240861,0.309702
6.73,-0.0991578,0.217436,0.316594,-0.068288,-0.240034,0.308322
6.735,-0.0974826,0.212877,0.31036,-0.0666231,-0.235468,0.302091
6.74,-0.0901761,0.205399,0.295575,-0.0665241,-0.222714,0.289238
6.745,-0.0797998,0.198291,0.278091,-0.0684109,-0.206628,0.275039
6.75,-0.0744455,0.193708,0.268153,-0.0688561,-0.197799,0.266656
6.755,-0.0778068,0.190686,0.268493,-0.0651706,-0.199936,0.265107
6.76,-0.0871427,0.188087,0.27523,-0.0582801,-0.209216,0.267496
6.765,-0.0979441,0.185725,0.283669,-0.0506801,-0.220324,0.271004
6.77,-0.107897,0.183676,0.291573,-0.0437515,-0.230634,0.274385
6.775,-0.115317,0.183788,0.299105,-0.0395314,-0.239267,0.278798
6.78,-0.118687,0.187533,0.30622,-0.0397485,-0.24532,0.285068
6.785,-0.117798,0.194812,0.312609,-0.044464,-0.248496,0.29296
6.79,-0.11391,0.205278,0.319188,-0.0527509,-0.250049,0.3028
6.795,-0.108775,0.217682,0.326458,-0.0628773,-0.251282,0.314159
6.8,-0.104002,0.230136,0.334137,-0.0728236,-0.25296,0.325783
6.805,-0.0993452,0.24068,0.340025,-0.0815996,-0.25367,0.33527
6.81,-0.093702,0.248868,0.34257,-0.089585,-0.251881,0.341466
6.815,-0.0887285,0.258689,0.347417,-0.0981265,-0.251809,0.349935
6.82,-0.0854636,0.274124,0.359588,-0.108923,-0.256951,0.365874
6.825,-0.0840457,0.294459,0.378505,-0.121482,-0.267053,0.388535
6.83,-0.0857083,0.315918,0.401626,-0.132911,-0.281363,0.414274
6.835,-0.0903711,0.334604,0.424976,-0.141008,-0.297535,0.438543
6.84,-0.0949305,0.348791,0.443722,-0.146567,-0.310991,0.457558
6.845,-0.0965517,0.357141,0.453693,-0.150451,-0.317684,0.468135
6.85,-0.0956721,0.355941,0.451613,-0.150266,-0.315975,0.466241
6.855,-0.0947664,0.342889,0.437656,-0.143254,-0.307394,0.450648
6.86,-0.0953816,0.319663,0.415045,-0.129489,-0.294695,0.424184
6.865,-0.0965787,0.289612,0.38619,-0.111448,-0.278727,0.390174
6.87,-0.0976944,0.256346,0.35404,-0.0915974,-0.260809,0.352406
6.875,-0.0996841,0.224026,0.32371,-0.071789,-0.244447,0.316236
6.88,-0.103254,0.196275,0.299529,-0.0537058,-0.232547,0.286253
6.885,-0.108529,0.175268,0.283797,-0.0385313,-0.22651,0.265041
6.89,-0.114239,0.159857,0.274096,-0.0263379,-0.224205,0.250543
6.895,-0.117003,0.147479,0.264482,-0.0175953,-0.220251,0.237846
6.9,-0.114141,0.137081,0.251221,-0.0132446,-0.210942,0.224186
6.905,-0.106738,0.129213,0.235951,-0.0129756,-0.197852,0.210828
6.91,-0.0966609,0.122766,0.219427,-0.0150716,-0.182493,0.197565
6.915,-0.0839746,0.11656,0.200535,-0.0188132,-0.164261,0.183075
6.92,-0.0684562,0.116765,0.185222,-0.0278913,-0.146461,0.174352
6.925,-0.0501992,0.140025,0.190224,-0.051861,-0.138808,0.19067
6.93,-0.0314509,0.207522,0.238973,-0.101655,-0.156129,0.257784
6.935,-0.0205278,0.338734,0.359262,-0.183716,-0.219272,0.402988
6.94,-0.0277003,0.544656,0.572356,-0.298465,-0.346443,0.644907
6.945,-0.0588918,0.810957,0.869849,-0.434205,-0.536208,0.970413
6.95,-0.114718,1.07653,1.19125,-0.555302,-0.753999,1.3093
6.955,-0.188664,1.24501,1.43367,-0.609879,-0.936654,1.54653
6.96,-0.267164,1.244,1.51117,-0.563978,-1.02672,1.5907
6.965,-0.330156,1.08066,1.41081,-0.433302,-1.00515,1.43845
6.97,-0.36111,0.829827,1.19094,-0.270614,-0.896074,1.16669
6.975,-0.35613,0.579686,0.935816,-0.12907,-0.745905,0.874975
6.98,-0.322938,0.386379,0.709318,-0.0366279,-0.595973,0.632601
6.985,-0.274799,0.264507,0.539305,0.00594212,-0.470023,0.464081
6.99,-0.224148,0.199887,0.424035,0.0140074,-0.374228,0.360221
6.995,-0.179849,0.169104,0.348954,0.00620374,-0.305304,0.299101
7,-0.146688,0.152881,0.299569,-0.0035759,-0.257646,0.261222
7.005,-0.124768,0.141657,0.266425,-0.00975084,-0.225855,0.235606
7.01,-0.109972,0.132997,0.242969,-0.0132937,-0.203771,0.217064
7.015,-0.0976612,0.126552,0.224214,-0.0166803,-0.185834,0.202515
7.02,-0.0877246,0.121586,0.209311,-0.0195499,-0.171493,0.191043
7.025,-0.0824541,0.117088,0.199542,-0.0199957,-0.16281,0.182806
7.03,-0.0814112,0.113843,0.195254,-0.0187242,-0.159733,0.178457
7.035,-0.0825282,0.1123,0.194828,-0.0171889,-0.160132,0.177321
7.04,-0.0840003,0.112146,0.196146,-0.0162499,-0.161743,0.177993
7.045,-0.0839397,0.113533,0.197473,-0.0170857,-0.162473,0.179559
7.05,-0.0813608,0.116553,0.197914,-0.0203182,-0.161239,0.181557
7.055,-0.0766169,0.120089,0.196706,-0.0250986,-0.157803,0.182902
7.06,-0.0694123,0.122779,0.192191,-0.0308114,-0.151037,0.181848
7.065,-0.0600091,0.12463,0.184639,-0.0373091,-0.141248,0.178557
7.07,-0.0506802,0.126827,0.177507,-0.0439633,-0.131744,0.175707
7.075,-0.0452446,0.130817,0.176062,-0.0494054,-0.127771,0.177177
7.08,-0.0465178,0.136826,0.183344,-0.0521397,-0.132711,0.184851
7.085,-0.0525568,0.14454,0.197096,-0.0531062,-0.144137,0.197243
7.09,-0.0570254,0.152754,0.209779,-0.0552688,-0.15404,0.209308
7.095,-0.0559096,0.159807,0.215717,-0.0599852,-0.156823,0.216809
7.1,-0.0513437,0.165658,0.217001,-0.0659992,-0.154929,0.220928
7.105,-0.0468129,0.171226,0.218039,-0.0718298,-0.152912,0.224742
7.11,-0.0424891,0.177576,0.220065,-0.0779926,-0.151586,0.229578
7.115,-0.0369029,0.184115,0.221018,-0.084993,-0.148911,0.233904
7.12,-0.0291183,0.188974,0.218092,-0.0922928,-0.142727,0.23502
7.125,-0.0197827,0.194039,0.213822,-0.100607,-0.134872,0.235479
7.13,-0.0102518,0.201508,0.21176,-0.110422,-0.128178,0.2386
7.135,-0.00227198,0.209562,0.211834,-0.119679,-0.123614,0.243293
7.14,0.0029101,0.214286,0.211376,-0.125398,-0.120358,0.245756
7.145,0.00643045,0.215392,0.208962,-0.128069,-0.116931,0.245001
7.15,0.0114154,0.215466,0.20405,-0.13099,-0.111218,0.242208
7.155,0.0198493,0.215512,0.195662,-0.135886,-0.101506,0.237391
7.16,0.0313248,0.215175,0.18385,-0.142317,-0.0880607,0.230377
7.165,0.0441418,0.214027,0.169886,-0.149054,-0.0725982,0.221652
7.17,0.0562484,0.212863,0.156615,-0.155372,-0.0579465,0.213318
7.175,0.0654034,0.212659,0.147255,-0.160539,-0.0472573,0.207797
7.18,0.0670568,0.213302,0.146245,-0.161865,-0.0457192,0.207584
7.185,0.0580596,0.214553,0.156494,-0.157393,-0.056831,0.214224
7.19,0.0409812,0.217769,0.176788,-0.149389,-0.078408,0.227797
7.195,0.0221749,0.222913,0.200738,-0.141502,-0.103093,0.244595
7.2,0.00797683,0.22709,0.219113,-0.135716,-0.1219,0.257616
7.205,-0.00106822,0.228556,0.229624,-0.13134,-0.13319,0.26453
7.21,-0.00973969,0.228749,0.238489,-0.126445,-0.143315,0.26976
7.215,-0.0211793,0.229305,0.250484,-0.120161,-0.156845,0.277006
7.22,-0.0342886,0.23018,0.264468,-0.113098,-0.172487,0.285585
7.225,-0.0459658,0.230345,0.27631,-0.106451,-0.186066,0.292517
7.23,-0.0551628,0.227957,0.28312,-0.0997629,-0.195308,0.295071
7.235,-0.0636181,0.22186,0.285478,-0.0913608,-0.201551,0.292911
7.24,-0.0719505,0.212601,0.284551,-0.0812045,-0.205826,0.287031
7.245,-0.0779917,0.201655,0.279646,-0.0713968,-0.206482,0.277879
7.25,-0.0813212,0.191154,0.272475,-0.0634118,-0.204264,0.267676
7.255,-0.0849205,0.182943,0.267864,-0.0565934,-0.20368,0.260273
7.26,-0.0898883,0.17739,0.267279,-0.0505192,-0.20621,0.256729
7.265,-0.0923988,0.173752,0.266151,-0.0469693,-0.207009,0.253978
7.27,-0.0876929,0.170112,0.257805,-0.0475847,-0.199473,0.247058
7.275,-0.0764362,0.165917,0.242353,-0.0516619,-0.184053,0.235715
7.28,-0.0651357,0.163526,0.228662,-0.0568059,-0.169624,0.22643
7.285,-0.0627977,0.165224,0.228022,-0.0591359,-0.167905,0.227041
7.29,-0.0718383,0.170886,0.242724,-0.057185,-0.181613,0.238798
7.295,-0.0865173,0.178108,0.264625,-0.05288,-0.202732,0.255612
7.3,-0.100057,0.184742,0.284799,-0.0488931,-0.222196,0.27109
7.305,-0.108944,0.19012,0.299064,-0.0468671,-0.235563,0.28243
7.31,-0.112956,0.194251,0.307207,-0.0469361,-0.242581,0.289517
7.315,-0.111545,0.197043,0.308588,-0.0493623,-0.242564,0.291926
7.32,-0.104279,0.198227,0.302506,-0.0542413,-0.234857,0.289099
7.325,-0.0939492,0.198559,0.292509,-0.0603967,-0.223121,0.283518
7.33,-0.0859633,0.19927,0.285233,-0.0654173,-0.21431,0.279727
7.335,-0.0842107,0.200995,0.285206,-0.0674255,-0.213283,0.280708
7.34,-0.0891818,0.203159,0.292341,-0.0658048,-0.220272,0.286077
7.345,-0.0980367,0.205288,0.303324,-0.0619214,-0.231726,0.293647
7.35,-0.105907,0.206531,0.312438,-0.0580957,-0.241531,0.299627
7.355,-0.109564,0.205392,0.314955,-0.0553265,-0.245096,0.300422
7.36,-0.109577,0.201777,0.311354,-0.0532313,-0.243025,0.296256
7.365,-0.107815,0.196704,0.304519,-0.0513198,-0.238061,0.289381
7.37,-0.104949,0.191498,0.296447,-0.0499688,-0.231747,0.281715
7.375,-0.1008,0.186987,0.287787,-0.0497603,-0.224351,0.274111
7.38,-0.0957124,0.183038,0.27875,-0.0504175,-0.216196,0.266614
7.385,-0.0914022,0.178647,0.270049,-0.0503706,-0.208684,0.259054
7.39,-0.0893689,0.172967,0.262336,-0.0482655,-0.203057,0.251322
7.395,-0.0899498,0.168204,0.258154,-0.0451802,-0.200978,0.246158
7.4,-0.0921585,0.166166,0.258324,-0.042728,-0.202351,0.245079
7.405,-0.0941133,0.166514,0.260627,-0.0418004,-0.204809,0.24661
7.41,-0.0943769,0.167272,0.261649,-0.0420861,-0.205552,0.247638
7.415,-0.0941472,0.166353,0.2605,-0.0416881,-0.204756,0.246444
7.42,-0.093508,0.163469,0.256977,-0.0403917,-0.202352,0.242744
7.425,-0.0906401,0.1597,0.25034,-0.0398718,-0.196865,0.236737
7.43,-0.0865678,0.156763,0.24333,-0.0405269,-0.190467,0.230994
7.435,-0.0862597,0.154325,0.240585,-0.0392974,-0.188703,0.228001
7.44,-0.0917906,0.150931,0.242722,-0.034145,-0.193131,0.227276
7.445,-0.098754,0.146653,0.245407,-0.0276542,-0.198701,0.226355
7.45,-0.102968,0.142809,0.245777,-0.0230025,-0.201348,0.22435
7.455,-0.105583,0.14041,0.245992,-0.0201075,-0.202982,0.223089
7.46,-0.109652,0.139453,0.249105,-0.0172057,-0.207128,0.224334
7.465,-0.114529,0.139245,0.253774,-0.0142697,-0.21264,0.22691
7.47,-0.117535,0.139377,0.256912,-0.0126105,-0.216187,0.228797
7.475,-0.118185,0.139693,0.257878,-0.0124175,-0.21712,0.229537
7.48,-0.117025,0.139415,0.25644,-0.0129269,-0.21562,0.228547
7.485,-0.114769,0.139464,0.254233,-0.0142573,-0.213043,0.2273
7.49,-0.111656,0.142195,0.253852,-0.0176315,-0.211026,0.228658
7.495,-0.106636,0.149169,0.255805,-0.0245562,-0.209256,0.233812
7.5,-0.100087,0.160632,0.260719,-0.0349559,-0.208311,0.243267
7.505,-0.0947165,0.174737,0.269453,-0.0461997,-0.210254,0.256453
7.51,-0.0924646,0.189386,0.281851,-0.0559576,-0.216111,0.272069
7.515,-0.0923712,0.204281,0.296653,-0.0646114,-0.224603,0.289214
7.52,-0.0940797,0.220158,0.314238,-0.0727916,-0.235742,0.308534
7.525,-0.0985346,0.236708,0.335242,-0.0797743,-0.250441,0.330215
7.53,-0.104024,0.253424,0.357449,-0.0862562,-0.266431,0.352688
7.535,-0.107733,0.269494,0.377227,-0.0933926,-0.279991,0.373384
7.54,-0.109297,0.283556,0.392853,-0.100608,-0.289917,0.390525
7.545,-0.109204,0.294973,0.404177,-0.107254,-0.2964,0.403654
7.55,-0.106911,0.302695,0.409607,-0.113036,-0.298212,0.411248
7.555,-0.102462,0.304248,0.40671,-0.116501,-0.293971,0.410472
7.56,-0.0981164,0.296005,0.394122,-0.114251,-0.284194,0.398445
7.565,-0.0957539,0.276249,0.372003,-0.104209,-0.27006,0.374268
7.57,-0.0958078,0.247864,0.343672,-0.0877897,-0.253734,0.341523
7.575,-0.0981794,0.215454,0.313633,-0.0677085,-0.23776,0.305469
7.58,-0.100954,0.183117,0.284072,-0.0474367,-0.222295,0.269731
7.585,-0.102328,0.15306,0.255389,-0.0292901,-0.206528,0.235818
7.59,-0.102378,0.126956,0.229334,-0.0141906,-0.191514,0.205704
7.595,-0.101916,0.106996,0.208912,-0.00293286,-0.179457,0.18239
7.6,-0.102979,0.0934312,0.19641,0.00551223,-0.172852,0.16734
7.605,-0.106665,0.0846468,0.191312,0.0127124,-0.172037,0.159325
7.61,-0.111469,0.0795383,0.191007,0.018435,-0.174634,0.156199
7.615,-0.113792,0.0759489,0.189741,0.0218489,-0.175245,0.153396
7.62,-0.108925,0.0734988,0.182424,0.0204534,-0.16821,0.147757
7.625,-0.093259,0.0793161,0.172575,0.00804993,-0.153479,0.145429
7.63,-0.0657282,0.108151,0.173879,-0.0244928,-0.138337,0.16283
7.635,-0.0333082,0.179359,0.212667,-0.0843223,-0.142014,0.226336
7.64,-0.0133651,0.312505,0.32587,-0.172708,-0.195857,0.368566
7.645,-0.0220716,0.518897,0.540968,-0.286842,-0.325071,0.611913
7.65,-0.0634967,0.781348,0.844845,-0.414452,-0.524431,0.938883
7.655,-0.131771,1.03473,1.1665,-0.521325,-0.749559,1.27088
7.66,-0.214157,1.18669,1.40085,-0.561492,-0.932424,1.49392
7.665,-0.293903,1.17771,1.47161,-0.510264,-1.01932,1.52958
7.67,-0.35296,1.02405,1.37701,-0.387452,-0.998796,1.38625
7.675,-0.377339,0.798375,1.17571,-0.243086,-0.896655,1.13974
7.68,-0.363279,0.574648,0.937927,-0.122034,-0.751251,0.873286
7.685,-0.320631,0.394968,0.715599,-0.0429186,-0.598268,0.641186
7.69,-0.266129,0.270553,0.536682,-0.00255386,-0.463503,0.466057
7.695,-0.212541,0.193016,0.405557,0.011273,-0.356859,0.345586
7.7,-0.165463,0.146348,0.311811,0.011036,-0.275554,0.264518
7.705,-0.127714,0.117161,0.244876,0.00609251,-0.215115,0.209022
7.71,-0.102219,0.0971523,0.199371,0.0029251,-0.174123,0.171198
7.715,-0.0901684,0.0825877,0.172756,0.00437675,-0.151799,0.147423
7.72,-0.0887102,0.072739,0.161449,0.00922095,-0.14443,0.135209
7.725,-0.0920225,0.0670442,0.159067,0.0144212,-0.144966,0.130545
7.73,-0.0945825,0.0638921,0.158475,0.0177191,-0.146103,0.128383
7.735,-0.0929806,0.061925,0.154906,0.01793,-0.143117,0.125187
7.74,-0.0866937,0.0603755,0.147069,0.0151948,-0.134963,0.119768
7.745,-0.078621,0.0596375,0.138259,0.0109601,-0.125215,0.114255
7.75,-0.0719757,0.0601939,0.13217,0.00680224,-0.117863,0.111061
7.755,-0.0675781,0.0616613,0.129239,0.00341606,-0.113633,0.110216
7.76,-0.0636057,0.0641465,0.127752,-0.000312248,-0.11048,0.110793
7.765,-0.0580628,0.0680075,0.12607,-0.00574156,-0.106309,0.112051
7.77,-0.0523724,0.0723836,0.124756,-0.0115534,-0.102265,0.113819
7.775,-0.0500918,0.0765162,0.126608,-0.0152561,-0.102018,0.117274
7.78,-0.0522705,0.0800778,0.132348,-0.0160546,-0.10659,0.122644
7.785,-0.0561795,0.0832072,0.139387,-0.0156045,-0.11291,0.128515
7.79,-0.0584128,0.0863091,0.144722,-0.016106,-0.11728,0.133386
7.795,-0.0570275,0.0900431,0.147071,-0.0190616,-0.117836,0.136898
7.8,-0.0514484,0.0944632,0.145912,-0.0248346,-0.113946,0.13878
7.805,-0.0416837,0.0985609,0.140245,-0.032838,-0.105036,0.137874
7.81,-0.0310605,0.102306,0.133366,-0.0411334,-0.0949316,0.136065
7.815,-0.0254604,0.107538,0.132998,-0.0473873,-0.0914859,0.138873
7.82,-0.0263986,0.115362,0.141761,-0.0513632,-0.0970869,0.14845
7.825,-0.0294561,0.124465,0.153921,-0.0548531,-0.105873,0.160726
7.83,-0.0284901,0.132554,0.161044,-0.0600814,-0.109428,0.169509
7.835,-0.0208511,0.139363,0.160214,-0.0684231,-0.104538,0.172961
7.84,-0.00935158,0.145596,0.154948,-0.0786608,-0.0948582,0.173519
7.845,0.0013747,0.15172,0.150346,-0.0883894,-0.0860084,0.174398
7.85,0.0104113,0.157356,0.146944,-0.0968603,-0.0788274,0.175688
7.855,0.0196353,0.161597,0.141962,-0.104634,-0.070625,0.175259
7.86,0.0297145,0.16361,0.133895,-0.111616,-0.0601488,0.171765
7.865,0.0384979,0.163918,0.12542,-0.116865,-0.0501847,0.16705
7.87,0.0430982,0.1641,0.121002,-0.119626,-0.0449777,0.164604
7.875,0.0418699,0.165633,0.123763,-0.119802,-0.047281,0.167083
7.88,0.0361078,0.168958,0.13285,-0.118395,-0.0558544,0.174249
7.885,0.0291259,0.172693,0.143567,-0.11652,-0.0660727,0.182593
7.89,0.0236843,0.176179,0.152494,-0.115391,-0.0743685,0.189759
7.895,0.0209112,0.179291,0.15838,-0.115587,-0.0793676,0.194954
7.9,0.0209113,0.18128,0.160368,-0.116735,-0.0805155,0.19725
7.905,0.02142,0.181497,0.160077,-0.117154,-0.0800536,0.197208
7.91,0.0176788,0.179986,0.162307,-0.114122,-0.0835013,0.197623
7.915,0.00697217,0.178411,0.171439,-0.107031,-0.0949548,0.201986
7.92,-0.00893448,0.177271,0.186206,-0.0971893,-0.112664,0.209853
7.925,-0.0261191,0.174367,0.200486,-0.085591,-0.130831,0.216422
7.93,-0.041349,0.168003,0.209352,-0.0731236,-0.144742,0.217866
7.935,-0.0526821,0.158484,0.211166,-0.0610845,-0.152332,0.213417
7.94,-0.0595503,0.147947,0.207497,-0.0510356,-0.15418,0.205215
7.945,-0.0627381,0.138318,0.201056,-0.043636,-0.152302,0.195937
7.95,-0.0637978,0.12916,0.192958,-0.0377371,-0.148238,0.185975
7.955,-0.0631804,0.120456,0.183637,-0.0330682,-0.1425,0.175568
7.96,-0.0603563,0.112799,0.173155,-0.0302779,-0.134818,0.165096
7.965,-0.0583248,0.106391,0.164716,-0.0277512,-0.128773,0.156524
7.97,-0.0631576,0.102495,0.165653,-0.0227115,-0.132104,0.154815
7.975,-0.0768385,0.102651,0.179489,-0.0149028,-0.147991,0.162894
7.98,-0.0942479,0.106425,0.200673,-0.00703036,-0.170272,0.177303
7.985,-0.109535,0.112236,0.221771,-0.00155919,-0.19128,0.192839
7.99,-0.120546,0.118166,0.238712,0.00137417,-0.207417,0.206043
7.995,-0.126683,0.122577,0.24926,0.00237061,-0.217051,0.21468
8,-0.127859,0.124873,0.252731,0.00172412,-0.219734,0.21801
8.005,-0.124825,0.125783,0.250608,-0.000553275,-0.216757,0.21731
8.01,-0.11872,0.126614,0.245333,-0.0045577,-0.210186,0.214744
8.015,-0.111071,0.127766,0.238838,-0.00963896,-0.20202,0.211659
8.02,-0.103973,0.128671,0.232644,-0.0142597,-0.194346,0.208605
8.025,-0.0988848,0.129999,0.228884,-0.0179639,-0.189237,0.207201
8.03,-0.0951289,0.132566,0.227695,-0.0216144,-0.186383,0.207997
8.035,-0.0899642,0.135444,0.225408,-0.0262579,-0.18208,0.208338
8.04,-0.0821401,0.136688,0.218828,-0.0314935,-0.173764,0.205258
8.045,-0.0752316,0.136237,0.211468,-0.0352213,-0.165526,0.200748
8.05,-0.0735713,0.136054,0.209625,-0.0360743,-0.163503,0.199578
8.055,-0.0774689,0.136141,0.21361,-0.0338744,-0.168054,0.201929
8.06,-0.0829209,0.134966,0.217887,-0.0300481,-0.173671,0.203719
8.065,-0.0844904,0.132225,0.216715,-0.0275595,-0.173901,0.201461
8.07,-0.0791345,0.128496,0.207631,-0.028499,-0.165564,0.194063
8.075,-0.0703505,0.124542,0.194892,-0.0312874,-0.153138,0.184425
8.08,-0.0673527,0.12142,0.188772,-0.0312156,-0.147874,0.179089
8.085,-0.0751895,0.119775,0.194964,-0.0257414,-0.155973,0.181715
8.09,-0.0901399,0.118818,0.208958,-0.0165571,-0.172684,0.189241
8.095,-0.105808,0.117463,0.223272,-0.00672911,-0.189994,0.196724
8.1,-0.117645,0.115437,0.233082,0.00127461,-0.202492,0.201217
8.105,-0.12301,0.112071,0.235081,0.00631536,-0.206743,0.200428
8.11,-0.121621,0.107543,0.229164,0.00812764,-0.202526,0.194398
8.115,-0.115747,0.103615,0.219361,0.00700449,-0.193475,0.18647
8.12,-0.108449,0.101106,0.209554,0.00423936,-0.183599,0.17936
8.125,-0.102188,0.0994296,0.201617,0.00159247,-0.175402,0.173809
8.13,-0.0985088,0.0977819,0.196291,0.000419646,-0.170202,0.169783
8.135,-0.0969484,0.0956772,0.192626,0.000733921,-0.167186,0.166452
8.14,-0.095735,0.0930181,0.188753,0.00156862,-0.164249,0.162681
8.145,-0.094524,0.0909834,0.185507,0.00204418,-0.161676,0.159632
8.15,-0.0937392,0.0888589,0.182598,0.00281765,-0.159543,0.156726
8.155,-0.0929056,0.0861006,0.179006,0.00392884,-0.156988,0.153059
8.16,-0.0896974,0.083039,0.172736,0.00384426,-0.151516,0.147672
8.165,-0.0832094,0.0798087,0.163018,0.00196341,-0.142159,0.140196
8.17,-0.0783414,0.0767301,0.155072,0.000930288,-0.134761,0.133831
8.175,-0.0804671,0.0739338,0.154401,0.00377201,-0.135601,0.131829
8.18,-0.0889586,0.0719645,0.160923,0.00981154,-0.144269,0.134458
8.185,-0.0994848,0.0716114,0.171096,0.0160927,-0.15622,0.140127
8.19,-0.109523,0.0743116,0.183835,0.0203293,-0.16937,0.149041
8.195,-0.117994,0.0815469,0.199541,0.0210426,-0.183328,0.162286
8.2,-0.123002,0.0934138,0.216416,0.0170829,-0.195963,0.17888
8.205,-0.122867,0.109314,0.232181,0.00782477,-0.204987,0.197162
8.21,-0.118556,0.127135,0.245691,-0.00495266,-0.210298,0.215251
8.215,-0.112931,0.144016,0.256947,-0.0179467,-0.213549,0.231496
8.22,-0.108541,0.157772,0.266312,-0.0284237,-0.216421,0.244845
8.225,-0.106552,0.169192,0.275744,-0.036165,-0.220719,0.256884
8.23,-0.106226,0.181221,0.287447,-0.0432985,-0.227287,0.270585
8.235,-0.10573,0.195845,0.301575,-0.0520278,-0.235158,0.287185
8.24,-0.103125,0.211806,0.314931,-0.0627468,-0.241365,0.304111
8.245,-0.0968456,0.226362,0.323208,-0.0747765,-0.242518,0.317294
8.25,-0.0882399,0.237586,0.325826,-0.0862247,-0.239061,0.325285
8.255,-0.0821186,0.243195,0.325313,-0.0929973,-0.235231,0.328228
8.26,-0.0816261,0.240377,0.322003,-0.0916547,-0.233035,0.32469
8.265,-0.0858857,0.22619,0.312075,-0.0810046,-0.229763,0.310767
8.27,-0.0919398,0.200533,0.292473,-0.0626962,-0.22194,0.284637
8.275,-0.0981756,0.167444,0.265619,-0.0399921,-0.210037,0.250029
8.28,-0.105154,0.132605,0.237759,-0.0158491,-0.19798,0.213829
8.285,-0.112687,0.100453,0.21314,0.00706327,-0.188117,0.181053
8.29,-0.117961,0.0726388,0.190599,0.0261665,-0.178147,0.151981
8.295,-0.118624,0.0497002,0.168324,0.039793,-0.165669,0.125876
8.3,-0.116555,0.0315694,0.148124,0.0490664,-0.152813,0.103746
8.305,-0.114927,0.0187424,0.13367,0.0555323,-0.143528,0.0879952
8.31,-0.114631,0.01117,0.125801,0.0597334,-0.138814,0.0790805
8.315,-0.114158,0.00725756,0.121415,0.0617188,-0.136008,0.0742893
8.32,-0.11122,0.00465214,0.115872,0.0615269,-0.131111,0.0695846
8.325,-0.103417,0.00254706,0.105964,0.0582375,-0.120887,0.0626491
8.33,-0.0873343,0.00723725,0.0945715,0.046244,-0.105023,0.0587793
8.335,-0.0621142,0.0335356,0.0956497,0.0164999,-0.091085,0.0745851
8.34,-0.0371929,0.101336,0.138529,-0.0370332,-0.101453,0.138486
8.345,-0.0281091,0.231167,0.259276,-0.117235,-0.165922,0.283157
8.35,-0.0445713,0.433534,0.478106,-0.224568,-0.301767,0.526335
8.355,-0.0877107,0.692335,0.780045,-0.34908,-0.500999,0.850079
8.36,-0.153446,0.947492,1.10094,-0.458442,-0.724218,1.18266
8.365,-0.23066,1.10819,1.33885,-0.506644,-0.906158,1.4128
8.37,-0.303286,1.11125,1.41454,-0.46648,-0.991786,1.45827
8.375,-0.356253,0.970181,1.32643,-0.354452,-0.971499,1.32595
8.38,-0.378805,0.756929,1.13573,-0.21831,-0.874419,1.09273
8.385,-0.366555,0.543794,0.910348,-0.102329,-0.73722,0.839549
8.39,-0.324941,0.368587,0.693528,-0.0251992,-0.588013,0.613212
8.395,-0.267968,0.238993,0.506961,0.0167284,-0.447405,0.430677
8.4,-0.211325,0.148862,0.360188,0.0360629,-0.329963,0.2939
8.405,-0.165463,0.0888174,0.254281,0.0442514,-0.242339,0.198088
8.41,-0.132283,0.0503755,0.182659,0.0472894,-0.181832,0.134542
8.415,-0.107867,0.0256933,0.13356,0.0474429,-0.139388,0.091945
8.42,-0.0888162,0.00808396,0.0969002,0.0466108,-0.107223,0.0606126
8.425,-0.0761621,-0.00520457,0.0709575,0.046977,-0.0849395,0.0379625
8.43,-0.0713972,-0.0144808,0.0569164,0.0495817,-0.0740819,0.0245002
8.435,-0.072963,-0.0195622,0.0534009,0.0534194,-0.0729562,0.0195368
8.44,-0.0768209,-0.0207154,0.0561055,0.0563126,-0.0767451,0.0204325
8.445,-0.0781056,-0.019564,0.0585416,0.0563895,-0.0788932,0.0225037
8.45,-0.0737763,-0.0191705,0.0546058,0.0536628,-0.0741214,0.0204585
8.455,-0.0671116,-0.0204195,0.0466921,0.0505361,-0.0657046,0.0151685
8.46,-0.0648769,-0.0198756,0.0450013,0.0489319,-0.0634382,0.0145063
8.465,-0.068202,-0.0163635,0.0518385,0.0488239,-0.0693054,0.0204815
8.47,-0.0726971,-0.0116801,0.061017,0.0487152,-0.0771998,0.0284847
8.475,-0.0733494,-0.00848123,0.0648682,0.0472449,-0.0797999,0.032555
8.48,-0.0666635,-0.00781206,0.0588515,0.0429985,-0.0724661,0.0294676
8.485,-0.0554925,-0.00874384,0.0467486,0.0370868,-0.0590289,0.0219421
8.49,-0.0472368,-0.00812616,0.0391106,0.0319638,-0.0498527,0.0178889
8.495,-0.0446381,-0.00406621,0.0405719,0.0281194,-0.049196,0.0210765
8.5,-0.043696,0.00203026,0.0457263,0.0240557,-0.051628,0.0275722
8.505,-0.0393624,0.00803168,0.0473941,0.0180888,-0.0500889,0.0320001
8.51,-0.0305639,0.0132989,0.0438628,0.00996796,-0.0429703,0.0330023
8.515,-0.0209294,0.0178177,0.0387472,0.00179656,-0.0344543,0.0326577
8.52,-0.0141381,0.0218909,0.036029,-0.00447606,-0.028964,0.03344
8.525,-0.0131752,0.0273378,0.040513,-0.00817679,-0.0309969,0.0391737
8.53,-0.0179363,0.0357027,0.0536391,-0.0102574,-0.0413241,0.0515815
8.535,-0.0230375,0.0458222,0.0688597,-0.0131547,-0.0530569,0.0662116
8.54,-0.0231177,0.0530662,0.0761839,-0.0172908,-0.0573318,0.0746226
8.545,-0.0172251,0.0559594,0.0731845,-0.0223633,-0.052198,0.0745613
8.55,-0.00563902,0.0575344,0.0631734,-0.0299618,-0.0397289,0.0696906
8.555,0.0109077,0.0598926,0.0489849,-0.0408765,-0.0219839,0.0628604
8.56,0.0283628,0.0631145,0.0347517,-0.0528144,-0.00368866,0.0565031
8.565,0.0409863,0.0664164,0.0254302,-0.062009,0.00898133,0.0530276
8.57,0.045807,0.0688059,0.0229988,-0.0661718,0.0131683,0.0530035
8.575,0.0446507,0.0703838,0.0257331,-0.0664151,0.010922,0.0554931
8.58,0.0414673,0.0710103,0.029543,-0.064939,0.0068845,0.0580545
8.585,0.0396021,0.0714694,0.0318673,-0.0641271,0.00446572,0.0596614
8.59,0.0414318,0.0724966,0.0310648,-0.0657765,0.00598537,0.0597912
8.595,0.0472409,0.0728913,0.0256504,-0.0693583,0.0124653,0.0568931
8.6,0.053511,0.0723565,0.0188455,-0.0726696,0.0200141,0.0526555
8.605,0.0544904,0.0718211,0.0173306,-0.0729259,0.0214542,0.0514717
8.61,0.048259,0.0717825,0.0235235,-0.0693059,0.014281,0.0550249
8.615,0.0377951,0.0726428,0.0348478,-0.0637613,0.00170164,0.0620597
8.62,0.0243697,0.07369,0.0493203,-0.0566148,-0.0144052,0.07102
8.625,0.00720638,0.0739214,0.066715,-0.0468391,-0.0343573,0.0811965
8.63,-0.0133785,0.0722745,0.085653,-0.0340036,-0.0571759,0.0911795
8.635,-0.035028,0.0674896,0.102518,-0.0187417,-0.079412,0.0981537
8.64,-0.0546975,0.0588969,0.113594,-0.00242454,-0.0971633,0.0995879
8.645,-0.0698205,0.0477578,0.117578,0.0127379,-0.108195,0.0954568
8.65,-0.0793413,0.0367419,0.116083,0.0245948,-0.112828,0.0882335
8.655,-0.0835775,0.0273943,0.110972,0.0324373,-0.112323,0.0798857
8.66,-0.0840693,0.0195944,0.103664,0.0372246,-0.108388,0.0711631
8.665,-0.0835673,0.0128312,0.0963985,0.0408395,-0.103903,0.0630638
8.67,-0.0827956,0.0065776,0.0893732,0.0440045,-0.0994017,0.0553972
8.675,-0.0799214,0.000708548,0.08063,0.0457336,-0.0926944,0.0469608
8.68,-0.0742318,-0.00368165,0.0705501,0.0449833,-0.0835898,0.0386065
8.685,-0.0702594,-0.0063682,0.0638912,0.0442409,-0.0774518,0.0332109
8.69,-0.0739442,-0.00654582,0.0673984,0.0464709,-0.0816042,0.0351333
8.695,-0.0848709,-0.00286998,0.0820009,0.0506572,-0.0963435,0.0456863
8.7,-0.0971506,0.00406935,0.10122,0.0537405,-0.114529,0.0607888
8.705,-0.105683,0.0111222,0.116805,0.0545948,-0.128454,0.073859
8.71,-0.108558,0.0155309,0.124089,0.0537091,-0.134319,0.0806094
8.715,-0.107138,0.0173559,0.124494,0.0518357,-0.133733,0.0818969
8.72,-0.103792,0.0183107,0.122103,0.0493527,-0.13042,0.0810678
8.725,-0.100044,0.0193433,0.119387,0.0465926,-0.126689,0.0800962
8.73,-0.0969018,0.0205033,0.117405,0.0441087,-0.12373,0.0796214
8.735,-0.0946286,0.0215177,0.116146,0.0422106,-0.121691,0.0794803
8.74,-0.0925221,0.0220617,0.114584,0.0406803,-0.119573,0.0788923
8.745,-0.0905537,0.0213913,0.111945,0.0399309,-0.116913,0.0769817
8.75,-0.0896362,0.0196215,0.109258,0.0404229,-0.114831,0.0744084
8.755,-0.0887959,0.0178549,0.106651,0.0409578,-0.112841,0.0718834
8.76,-0.086368,0.015415,0.101783,0.0409647,-0.108629,0.0676642
8.765,-0.0829492,0.0125884,0.0955376,0.0406228,-0.103049,0.0624265
8.77,-0.0801597,0.0111677,0.0913274,0.0398325,-0.0990081,0.0591756
8.775,-0.0762642,0.0116991,0.0879633,0.0372767,-0.0948168,0.0575401
8.78,-0.0707932,0.0127026,0.0834957,0.0335386,-0.0890787,0.0555401
8.785,-0.0694235,0.0129249,0.0823484,0.0326195,-0.0876255,0.0550061
8.79,-0.0747436,0.0123612,0.0871049,0.0360165,-0.0934432,0.0574268
8.795,-0.082757,0.0104476,0.0932046,0.0417478,-0.101591,0.0598436
8.8,-0.0895512,0.00628657,0.0958378,0.0480729,-0.107034,0.0589615
8.805,-0.0946191,0.0013804,0.0959995,0.0538314,-0.110054,0.0562223
8.81,-0.0995009,-0.00213273,0.0973682,0.0586782,-0.113662,0.0549842
8.815,-0.104492,-0.00444371,0.100048,0.0628939,-0.118091,0.0551972
8.82,-0.107999,-0.00729199,0.100707,0.0665633,-0.120497,0.0539332
8.825,-0.108702,-0.0119144,0.0967874,0.0696377,-0.118639,0.0490014
8.83,-0.106598,-0.0186156,0.0879826,0.0722922,-0.112341,0.040049
8.835,-0.104043,-0.0255,0.0785427,0.0747915,-0.105416,0.0306242
8.84,-0.10329,-0.0297457,0.0735444,0.0768082,-0.102095,0.0252872
8.845,-0.103815,-0.0323401,0.0714745,0.0786089,-0.101203,0.0225943
8.85,-0.103275,-0.0364228,0.066852,0.0806544,-0.0982227,0.0175683
8.855,-0.100641,-0.0424163,0.058225,0.0825943,-0.0917215,0.00912719
8.86,-0.0969389,-0.0479853,0.0489536,0.083672,-0.0842311,0.000559039
8.865,-0.0916132,-0.0510419,0.0405713,0.0823619,-0.0763167,-0.00604515
8.87,-0.0844855,-0.0525172,0.0319683,0.0790985,-0.0672346,-0.0118639
8.875,-0.0793007,-0.0544417,0.024859,0.0772162,-0.0601366,-0.0170796
8.88,-0.0800609,-0.056509,0.0235519,0.0788486,-0.0598208,-0.0190278
8.885,-0.087108,-0.0575441,0.0295639,0.0835149,-0.0673605,-0.0161543
8.89,-0.0981577,-0.0585584,0.0395993,0.09048,-0.079534,-0.010946
8.895,-0.110099,-0.0602189,0.0498797,0.0983327,-0.0923634,-0.00596933
8.9,-0.119241,-0.0617011,0.0575402,0.104467,-0.102065,-0.00240229
8.905,-0.121682,-0.0624668,0.0592147,0.106318,-0.10444,-0.00187759
8.91,-0.116671,-0.063676,0.0529949,0.104123,-0.0979565,-0.00616678
8.915,-0.108247,-0.0659786,0.0422679,0.100589,-0.0868995,-0.0136894
8.92,-0.100779,-0.0679736,0.0328053,0.0974292,-0.0771248,-0.0203044
8.925,-0.0956433,-0.0662972,0.029346,0.0934964,-0.0721626,-0.0213338
8.93,-0.0922841,-0.0570577,0.0352264,0.0862225,-0.0736182,-0.0126043
8.935,-0.0895752,-0.0408405,0.0487347,0.0752956,-0.0798533,0.00455769
8.94,-0.0872232,-0.0221339,0.0650893,0.0631374,-0.0879377,0.0248003
8.945,-0.0861206,-0.00509065,0.08103,0.0526608,-0.0965044,0.0438436
8.95,-0.0857406,0.0096423,0.0953829,0.0439353,-0.104572,0.0606363
8.955,-0.0845025,0.022659,0.107162,0.0357053,-0.110657,0.0749519
8.96,-0.0828036,0.0344913,0.117295,0.0278931,-0.115527,0.0876338
8.965,-0.0817723,0.0473567,0.129129,0.0198699,-0.121764,0.101894
8.97,-0.0815254,0.0617427,0.143268,0.0114216,-0.129785,0.118363
8.975,-0.0833105,0.0762691,0.15958,0.00406537,-0.140233,0.136167
8.98,-0.0873522,0.0893508,0.176703,-0.00115392,-0.152452,0.153606
8.985,-0.0906315,0.0981875,0.188819,-0.00436243,-0.161341,0.165703
8.99,-0.0899141,0.0982085,0.188123,-0.00478875,-0.160525,0.165313
8.995,-0.0863013,0.0857331,0.172034,0.000328014,-0.14915,0.148822
9,-0.0830558,0.0626293,0.145685,0.0117933,-0.132064,0.12027
9.005,-0.0823239,0.0328669,0.115191,0.028554,-0.114035,0.0854811
9.01,-0.0849733,0.000273696,0.085247,0.0489013,-0.0982767,0.0493754
9.015,-0.0895855,-0.0312535,0.058332,0.0697664,-0.0854002,0.0156337
9.02,-0.0933605,-0.0593104,0.0340501,0.0881445,-0.0735605,-0.0145841
9.025,-0.0946442,-0.0833022,0.011342,0.102737,-0.0611911,-0.0415463
9.03,-0.0933105,-0.102497,-0.0091866,0.11305,-0.048569,-0.0644806
9.035,-0.0898175,-0.114672,-0.0248542,0.118062,-0.0375066,-0.0805553
9.04,-0.0864403,-0.12004,-0.0335997,0.119211,-0.0305075,-0.0887039
9.045,-0.0843117,-0.122911,-0.0385996,0.11964,-0.0263919,-0.0932484
9.05,-0.080749,-0.126661,-0.0459116,0.119748,-0.0201134,-0.0996346
9.055,-0.0720785,-0.129214,-0.0571356,0.116216,-0.00862733,-0.107589
9.06,-0.0574391,-0.12098,-0.0635409,0.10301,0.00352285,-0.106533
9.065,-0.0374838,-0.0853613,-0.0478775,0.0709246,0.00600084,-0.0769254
9.07,-0.0172225,-0.0015936,0.0156289,0.0108635,-0.0189668,0.00810328
9.075,-0.00897997,0.148471,0.157451,-0.0805351,-0.0960889,0.176624
9.08,-0.0237687,0.372412,0.396181,-0.201289,-0.242458,0.443747
9.085,-0.0652756,0.645347,0.710622,-0.334904,-0.447965,0.782869
9.09,-0.129011,0.892627,1.02164,-0.440874,-0.664327,1.1052
9.095,-0.202369,1.01799,1.22035,-0.470896,-0.821409,1.29231
9.1,-0.269234,0.970581,1.23981,-0.404922,-0.871249,1.27617
9.105,-0.314943,0.782346,1.09729,-0.269855,-0.815352,1.08521
9.11,-0.329394,0.536083,0.865477,-0.119332,-0.689859,0.809191
9.115,-0.310528,0.307177,0.617705,0.0019342,-0.535915,0.533981
9.12,-0.266956,0.134697,0.401653,0.0763596,-0.386021,0.309662
9.125,-0.212727,0.0245497,0.237277,0.108644,-0.25981,0.151166
9.13,-0.160646,-0.0375935,0.123052,0.114454,-0.163793,0.0493397
9.135,-0.120703,-0.0727366,0.0479667,0.111683,-0.0973816,-0.0143009
9.14,-0.0969411,-0.0961084,0.000832625,0.111457,-0.0564496,-0.0550075
9.145,-0.0845818,-0.113861,-0.0292796,0.114571,-0.0319287,-0.0826425
9.15,-0.0761088,-0.127695,-0.0515866,0.117666,-0.0141579,-0.103508
9.155,-0.0678804,-0.138467,-0.0705867,0.119135,0.00156249,-0.120697
9.16,-0.0594009,-0.146351,-0.0869496,0.118791,0.0159053,-0.134696
9.165,-0.050837,-0.150952,-0.100115,0.116503,0.0284508,-0.144954
9.17,-0.0448249,-0.152439,-0.107614,0.11389,0.0362513,-0.150141
9.175,-0.0446619,-0.152023,-0.107361,0.113556,0.0361995,-0.149756
9.18,-0.0482303,-0.14996,-0.10173,0.114425,0.0308881,-0.145313
9.185,-0.0516619,-0.146975,-0.0953127,0.114683,0.0252018,-0.139885
9.19,-0.0534329,-0.145006,-0.091573,0.114569,0.0220202,-0.136589
9.195,-0.0528438,-0.14404,-0.091196,0.113671,0.0221426,-0.135813
9.2,-0.0501054,-0.142081,-0.0919756,0.110959,0.0241737,-0.135133
9.205,-0.046141,-0.138464,-0.0923232,0.106582,0.0266633,-0.133245
9.21,-0.0421839,-0.134813,-0.092629,0.102189,0.0291245,-0.131314
9.215,-0.0375957,-0.131949,-0.0943534,0.0978867,0.0327691,-0.130656
9.22,-0.0299841,-0.128712,-0.0987276,0.091623,0.039689,-0.131312
9.225,-0.020669,-0.12452,-0.103851,0.0838249,0.0480251,-0.13185
9.23,-0.0137966,-0.119451,-0.105655,0.0769307,0.0530342,-0.129965
9.235,-0.0107117,-0.113619,-0.102907,0.0717823,0.0532291,-0.125011
9.24,-0.0105756,-0.107284,-0.0967084,0.0680462,0.0497288,-0.117775
9.245,-0.0130169,-0.0997432,-0.0867263,0.0651021,0.0425561,-0.107658
9.25,-0.0164775,-0.0906159,-0.0741384,0.0618304,0.0332905,-0.0951209
9.255,-0.0178787,-0.0816638,-0.0637851,0.0574709,0.0265041,-0.083975
9.26,-0.0145213,-0.0742775,-0.0597563,0.051268,0.0261164,-0.0773844
9.265,-0.00519507,-0.0683828,-0.0631877,0.0424802,0.033482,-0.0759622
9.27,0.00828436,-0.0641831,-0.0724675,0.0322731,0.0466221,-0.0788952
9.275,0.0236522,-0.0607289,-0.0843811,0.0214063,0.062373,-0.0837793
9.28,0.0393436,-0.0574334,-0.0967771,0.0104441,0.0785893,-0.0890334
9.285,0.0524412,-0.0541993,-0.106641,0.00101504,0.0918459,-0.0928609
9.29,0.0611127,-0.0504146,-0.111527,-0.00617656,0.0996737,-0.0934972
9.295,0.0668028,-0.0462349,-0.113038,-0.0118749,0.103831,-0.091956
9.3,0.0708117,-0.0422674,-0.113079,-0.01648,0.106169,-0.0896893
