Time,Lead I,Lead II,Lead III,aVR,aVL,aVF
0,-0.0712184,0.712233,0.783451,-0.37009,-0.493444,0.863533
0.005,-0.0670427,0.717697,0.784739,-0.375655,-0.491776,0.867432
0.01,-0.062872,0.722409,0.785281,-0.380784,-0.489681,0.870465
0.015,-0.0595731,0.724947,0.78452,-0.384153,-0.487337,0.87149
0.02,-0.0565716,0.72565,0.782222,-0.386293,-0.484278,0.87057
0.025,-0.0527546,0.726478,0.779232,-0.388974,-0.480348,0.869322
0.03,-0.0483521,0.728221,0.776573,-0.392522,-0.476271,0.868793
0.035,-0.0439878,0.73099,0.774978,-0.396641,-0.47283,0.86947
0.04,-0.0393226,0.735491,0.774814,-0.401933,-0.470042,0.871975
0.045,-0.0334651,0.742141,0.775606,-0.409154,-0.467117,0.876271
0.05,-0.0267325,0.750293,0.777026,-0.417748,-0.46405,0.881797
0.055,-0.0200332,0.758596,0.778629,-0.426409,-0.461107,0.887517
0.06,-0.013178,0.765394,0.778572,-0.434292,-0.457117,0.891409
0.065,-0.0064083,0.771286,0.777694,-0.441602,-0.452701,0.894303
0.07,-0.000557911,0.77841,0.778968,-0.449093,-0.450059,0.899152
0.075,0.00484852,0.78709,0.782242,-0.457226,-0.448828,0.906054
0.08,0.0110648,0.796062,0.784998,-0.465995,-0.44683,0.912825
0.085,0.0186258,0.804675,0.786049,-0.475333,-0.443072,0.918405
0.09,0.0278942,0.81296,0.785066,-0.485467,-0.437153,0.922621
0.095,0.0387761,0.820619,0.781843,-0.496172,-0.42901,0.925182
0.1,0.0494244,0.827547,0.778122,-0.506319,-0.420714,0.927033
0.105,0.0578472,0.833257,0.77541,-0.514479,-0.414285,0.928764
0.11,0.0632851,0.837281,0.773995,-0.519942,-0.410329,0.93027
0.115,0.0656928,0.840055,0.774362,-0.522933,-0.40915,0.932084
0.12,0.0660643,0.841712,0.775647,-0.524104,-0.409678,0.933782
0.125,0.0660436,0.842136,0.776093,-0.524338,-0.409947,0.934284
0.13,0.0663246,0.841966,0.775641,-0.524401,-0.409524,0.933925
0.135,0.0665336,0.841681,0.775147,-0.524358,-0.409118,0.933476
0.14,0.0656369,0.841784,0.776148,-0.5239,-0.410213,0.934113
0.145,0.0628575,0.843198,0.780341,-0.523111,-0.414239,0.93735
0.15,0.0579182,0.847375,0.789456,-0.522671,-0.422354,0.945024
0.155,0.0503098,0.854376,0.804066,-0.52232,-0.435181,0.957501
0.16,0.0397941,0.86151,0.821716,-0.520368,-0.451442,0.97181
0.165,0.0268897,0.865923,0.839033,-0.515465,-0.468891,0.984357
0.17,0.0120819,0.867241,0.85516,-0.507677,-0.486751,0.994428
0.175,-0.00427127,0.867372,0.871644,-0.498311,-0.505709,1.00402
0.18,-0.0213027,0.867586,0.888889,-0.488602,-0.525499,1.0141
0.185,-0.0375133,0.868249,0.905762,-0.479625,-0.5446,1.02423
0.19,-0.0515764,0.868616,0.920193,-0.471718,-0.561051,1.03277
0.195,-0.0629236,0.867483,0.930406,-0.464512,-0.573499,1.03801
0.2,-0.0710102,0.865537,0.936547,-0.45872,-0.581713,1.04043
0.205,-0.0754042,0.864345,0.93975,-0.455495,-0.586099,1.04159
0.21,-0.0771764,0.864878,0.942055,-0.45478,-0.588453,1.04323
0.215,-0.0785303,0.86613,0.94466,-0.454721,-0.590739,1.04546
0.22,-0.0811485,0.866428,0.947577,-0.453381,-0.593934,1.04732
0.225,-0.0850177,0.865612,0.95063,-0.450676,-0.597931,1.04861
0.23,-0.0890918,0.865634,0.954726,-0.448337,-0.602648,1.05098
0.235,-0.0918696,0.868506,0.960375,-0.448391,-0.607513,1.0559
0.24,-0.092179,0.874115,0.966294,-0.451451,-0.611109,1.06256
0.245,-0.0902583,0.881338,0.971596,-0.45673,-0.613062,1.06979
0.25,-0.087058,0.88929,0.976348,-0.463169,-0.613957,1.07713
0.255,-0.0834348,0.896171,0.979606,-0.469233,-0.613747,1.08298
0.26,-0.0808691,0.900412,0.981281,-0.473163,-0.613232,1.0864
0.265,-0.080341,0.903244,0.983585,-0.475103,-0.614258,1.08936
0.27,-0.0814236,0.906393,0.987817,-0.476296,-0.617326,1.09362
0.275,-0.0831143,0.909563,0.992677,-0.47715,-0.621108,1.09826
0.28,-0.0842087,0.911476,0.995685,-0.477623,-0.623477,1.1011
0.285,-0.0837462,0.912288,0.996034,-0.478359,-0.623411,1.10177
0.29,-0.0820827,0.911622,0.993704,-0.478934,-0.621106,1.10004
0.295,-0.0805049,0.910054,0.990559,-0.47894,-0.618379,1.09732
0.3,-0.0800337,0.909854,0.989887,-0.479097,-0.617719,1.09682
0.305,-0.0804918,0.911784,0.992275,-0.479946,-0.619362,1.09931
0.31,-0.0807349,0.914978,0.995712,-0.48165,-0.621487,1.10314
0.315,-0.0801506,0.917661,0.997812,-0.483537,-0.622361,1.1059
0.32,-0.0783815,0.918997,0.997379,-0.48533,-0.62109,1.10642
0.325,-0.0757003,0.919284,0.994985,-0.487043,-0.61816,1.1052
0.33,-0.0728211,0.918641,0.991462,-0.488334,-0.614464,1.1028
0.335,-0.0705383,0.916968,0.987507,-0.488686,-0.610862,1.09955
0.34,-0.0700329,0.915093,0.985126,-0.487895,-0.609196,1.09709
0.345,-0.0722536,0.913999,0.986253,-0.485982,-0.611129,1.09711
0.35,-0.0762775,0.9138,0.990078,-0.483544,-0.61566,1.0992
0.355,-0.0787683,0.914339,0.993107,-0.482417,-0.618847,1.10126
0.36,-0.0778127,0.914456,0.992269,-0.483036,-0.617812,1.10085
0.365,-0.0753575,0.913453,0.98881,-0.483874,-0.614397,1.09827
0.37,-0.0745389,0.911247,0.985786,-0.483074,-0.612179,1.09525
0.375,-0.0765815,0.908072,0.984653,-0.480061,-0.612704,1.09276
0.38,-0.0806424,0.904653,0.985295,-0.475742,-0.615419,1.09116
0.385,-0.0852873,0.902138,0.987425,-0.471609,-0.61933,1.09094
0.39,-0.088952,0.900683,0.989635,-0.468653,-0.622722,1.09137
0.395,-0.0901774,0.89958,0.989757,-0.467309,-0.6235,1.09081
0.4,-0.0884172,0.899758,0.988175,-0.468428,-0.62157,1.09
0.405,-0.0854582,0.901643,0.987101,-0.471224,-0.619242,1.09047
0.41,-0.0834604,0.903353,0.986814,-0.473365,-0.617923,1.09129
0.415,-0.0827769,0.904052,0.986829,-0.474163,-0.617537,1.0917
0.42,-0.0824877,0.904644,0.987132,-0.474672,-0.617545,1.09222
0.425,-0.081613,0.90547,0.987083,-0.475654,-0.617012,1.09267
0.43,-0.0804088,0.907194,0.987603,-0.477345,-0.616616,1.09396
0.435,-0.0799365,0.91181,0.991746,-0.480282,-0.618736,1.09902
0.44,-0.0806174,0.921001,1.00162,-0.485196,-0.624829,1.11002
0.445,-0.0820335,0.934362,1.0164,-0.492092,-0.634178,1.12627
0.45,-0.0832467,0.949899,1.03315,-0.500362,-0.644549,1.14491
0.455,-0.0832219,0.965454,1.04868,-0.509357,-0.653501,1.16286
0.46,-0.0817741,0.980204,1.06198,-0.518709,-0.660345,1.17905
0.465,-0.0796197,0.994415,1.07403,-0.528157,-0.666062,1.19422
0.47,-0.077201,1.00878,1.08598,-0.537847,-0.671563,1.20941
0.475,-0.0752663,1.02383,1.0991,-0.547656,-0.678021,1.22568
0.48,-0.0747774,1.03981,1.11459,-0.55716,-0.686679,1.24384
0.485,-0.0757803,1.05605,1.13183,-0.565956,-0.697211,1.26317
0.49,-0.0770956,1.07075,1.14785,-0.573688,-0.707221,1.28091
0.495,-0.0768904,1.08196,1.15885,-0.580278,-0.713456,1.29373
0.5,-0.0742123,1.08685,1.16106,-0.584647,-0.713186,1.29783
0.505,-0.0689139,1.08196,1.15087,-0.58488,-0.704242,1.28912
0.51,-0.062661,1.0655,1.12816,-0.578989,-0.687521,1.26651
0.515,-0.0592388,1.03967,1.09891,-0.566053,-0.668658,1.23471
0.52,-0.0607129,1.00924,1.06996,-0.547633,-0.652791,1.20042
0.525,-0.0661315,0.978858,1.04499,-0.526963,-0.641506,1.16847
0.53,-0.0726465,0.952281,1.02493,-0.507857,-0.633684,1.14154
0.535,-0.0777552,0.931998,1.00975,-0.493197,-0.627873,1.12107
0.54,-0.0810573,0.917999,0.999056,-0.483208,-0.623604,1.10681
0.545,-0.0832222,0.907941,0.991163,-0.476151,-0.620296,1.09645
0.55,-0.0846379,0.89999,0.984628,-0.470744,-0.617341,1.08808
0.555,-0.0855523,0.894308,0.97986,-0.466935,-0.615116,1.08205
0.56,-0.0855877,0.891135,0.976723,-0.465083,-0.613325,1.07841
0.565,-0.0824845,0.890348,0.972832,-0.46642,-0.609287,1.07571
0.57,-0.0721539,0.894437,0.966591,-0.474745,-0.599719,1.07446
0.575,-0.0497062,0.909902,0.959608,-0.496634,-0.582727,1.07936
0.58,-0.0146405,0.947977,0.962617,-0.538862,-0.56422,1.10308
0.585,0.0243376,1.02425,0.999912,-0.605402,-0.563248,1.16865
0.59,0.0557814,1.15198,1.0962,-0.697301,-0.600685,1.29799
0.595,0.0717931,1.32802,1.25623,-0.808182,-0.683833,1.49201
0.6,0.0636358,1.519,1.45536,-0.913733,-0.803513,1.71725
0.605,0.0217663,1.66452,1.64276,-0.973579,-0.935878,1.90946
0.61,-0.0533943,1.71077,1.76416,-0.956883,-1.04936,2.00625
0.615,-0.145212,1.64833,1.79354,-0.867824,-1.11934,1.98716
0.62,-0.226697,1.51784,1.74454,-0.745443,-1.13809,1.88354
0.625,-0.275262,1.37404,1.6493,-0.63438,-1.11115,1.74553
0.63,-0.282963,1.25025,1.53321,-0.55846,-1.04857,1.60703
0.635,-0.256973,1.1543,1.41128,-0.518073,-0.963163,1.48124
0.64,-0.212432,1.08117,1.2936,-0.501564,-0.869506,1.37107
0.645,-0.164554,1.02477,1.18933,-0.496648,-0.781663,1.27831
0.65,-0.123955,0.982095,1.10605,-0.495447,-0.710143,1.20559
0.655,-0.0948492,0.950717,1.04557,-0.494135,-0.658419,1.15255
0.66,-0.0764314,0.927978,1.00441,-0.491641,-0.624024,1.11566
0.665,-0.0655913,0.911814,0.977406,-0.488567,-0.602174,1.09074
0.67,-0.0586758,0.900495,0.95917,-0.486024,-0.587653,1.07368
0.675,-0.053003,0.892916,0.945919,-0.484924,-0.576728,1.06165
0.68,-0.0481016,0.889277,0.937379,-0.485653,-0.568967,1.05462
0.685,-0.0450673,0.889271,0.934339,-0.487401,-0.56546,1.05286
0.69,-0.0441818,0.890908,0.93509,-0.488857,-0.565383,1.05424
0.695,-0.044243,0.892852,0.937095,-0.489944,-0.566575,1.05652
0.7,-0.043531,0.895122,0.938653,-0.491666,-0.567064,1.05873
0.705,-0.0415674,0.897448,0.939015,-0.494142,-0.566139,1.06028
0.71,-0.0386988,0.899717,0.938416,-0.497109,-0.564137,1.06125
0.715,-0.0346066,0.901883,0.93649,-0.500722,-0.560662,1.06138
0.72,-0.0296844,0.904504,0.934188,-0.505077,-0.556492,1.06157
0.725,-0.0254146,0.908185,0.933599,-0.509667,-0.553687,1.06335
0.73,-0.022328,0.913086,0.935414,-0.514279,-0.552952,1.06723
0.735,-0.0199964,0.918581,0.938577,-0.518798,-0.553433,1.07223
0.74,-0.0177608,0.923116,0.940877,-0.522707,-0.553469,1.07618
0.745,-0.0148926,0.926377,0.94127,-0.526246,-0.55204,1.07829
0.75,-0.0106803,0.929312,0.939993,-0.530372,-0.548871,1.07924
0.755,-0.00471699,0.933629,0.938346,-0.536307,-0.544477,1.08078
0.76,0.00273762,0.939273,0.936536,-0.54387,-0.539128,1.083
0.765,0.0108874,0.9446,0.933713,-0.551651,-0.532793,1.08444
0.77,0.0191271,0.949584,0.930457,-0.559285,-0.526156,1.08544
0.775,0.027284,0.955466,0.928182,-0.567391,-0.520134,1.08752
0.78,0.0354896,0.962208,0.926718,-0.57602,-0.514551,1.09057
0.785,0.0441938,0.968653,0.924459,-0.584767,-0.508221,1.09299
0.79,0.0539198,0.973983,0.920063,-0.59346,-0.500068,1.09353
0.795,0.0649417,0.978032,0.913091,-0.602161,-0.489679,1.09184
0.8,0.076986,0.981108,0.904122,-0.610891,-0.477547,1.08844
0.805,0.0880048,0.983056,0.895052,-0.618377,-0.465948,1.08433
0.81,0.0949355,0.984376,0.889441,-0.623141,-0.458708,1.08185
0.815,0.0964582,0.985278,0.88882,-0.62454,-0.45747,1.08201
0.82,0.0942133,0.985376,0.891163,-0.623301,-0.460119,1.08342
0.825,0.0906512,0.98466,0.894009,-0.620831,-0.463819,1.08465
0.83,0.0875332,0.983542,0.896009,-0.618385,-0.466774,1.08516
0.835,0.0855628,0.983137,0.897574,-0.617014,-0.468815,1.08583
0.84,0.0835687,0.983368,0.8998,-0.615996,-0.471251,1.08725
0.845,0.0798312,0.984594,0.904763,-0.614546,-0.476274,1.09082
0.85,0.0737379,0.988005,0.914267,-0.612997,-0.48528,1.09828
0.855,0.0652584,0.993372,0.928114,-0.6112,-0.49817,1.10937
0.86,0.0546939,0.998746,0.944053,-0.608204,-0.513471,1.12168
0.865,0.0427255,1.00229,0.959562,-0.603338,-0.529336,1.13267
0.87,0.0296439,1.00276,0.973117,-0.596059,-0.544714,1.14077
0.875,0.0156236,1.00086,0.985238,-0.586868,-0.559807,1.14667
0.88,0.00121281,0.997684,0.996471,-0.576713,-0.574612,1.15133
0.885,-0.0130034,0.993912,1.00692,-0.566328,-0.58885,1.15518
0.89,-0.0259813,0.990206,1.01619,-0.556695,-0.601696,1.15839
0.895,-0.0368408,0.986422,1.02326,-0.548241,-0.612051,1.16029
0.9,-0.0453754,0.981926,1.0273,-0.540718,-0.61931,1.16003
0.905,-0.0516758,0.976929,1.02861,-0.534195,-0.6237,1.1579
0.91,-0.0560021,0.972,1.028,-0.528851,-0.62585,1.1547
0.915,-0.0580753,0.968663,1.02674,-0.525728,-0.626317,1.15205
0.92,-0.0569353,0.967669,1.0246,-0.525812,-0.624427,1.15024
0.925,-0.0529644,0.968537,1.0215,-0.528606,-0.620343,1.14895
0.93,-0.0494118,0.970757,1.02017,-0.531939,-0.617523,1.14946
0.935,-0.0495835,0.97376,1.02334,-0.533573,-0.619454,1.15303
0.94,-0.0530386,0.976272,1.02931,-0.533029,-0.624894,1.15792
0.945,-0.0564799,0.978143,1.03462,-0.532122,-0.629948,1.16207
0.95,-0.0585449,0.980332,1.03888,-0.532193,-0.633596,1.16579
0.955,-0.0598674,0.982966,1.04283,-0.532951,-0.636644,1.16959
0.96,-0.0610415,0.985538,1.04658,-0.533758,-0.639485,1.17324
0.965,-0.0621498,0.987741,1.04989,-0.53439,-0.642037,1.17643
0.97,-0.0628674,0.989538,1.05241,-0.535013,-0.643903,1.17892
0.975,-0.0629198,0.991243,1.05416,-0.535968,-0.644948,1.18092
0.98,-0.0620152,0.992771,1.05479,-0.537372,-0.644786,1.18216
0.985,-0.0601163,0.994013,1.05413,-0.539185,-0.64331,1.18249
0.99,-0.0577013,0.994196,1.0519,-0.540685,-0.640627,1.18131
0.995,-0.0552724,0.992456,1.04773,-0.541083,-0.636817,1.1779
1,-0.0533499,0.989202,1.04255,-0.540314,-0.632719,1.17303
1.005,-0.0521999,0.987252,1.03945,-0.539852,-0.630265,1.17012
1.01,-0.0517681,0.988284,1.04005,-0.540697,-0.630362,1.17106
1.015,-0.0519769,0.991256,1.04323,-0.542293,-0.63232,1.17461
1.02,-0.0524326,0.994278,1.04671,-0.543775,-0.63459,1.17837
1.025,-0.0526808,0.996029,1.04871,-0.544642,-0.635888,1.18053
1.03,-0.0523419,0.995412,1.04775,-0.544482,-0.63514,1.17962
1.035,-0.05072,0.992626,1.04335,-0.543809,-0.631659,1.17547
1.04,-0.0489424,0.989328,1.03827,-0.542931,-0.627702,1.17063
1.045,-0.0497005,0.986223,1.03592,-0.540701,-0.626785,1.16749
1.05,-0.0539098,0.982847,1.03676,-0.536322,-0.629696,1.16602
1.055,-0.0594312,0.97972,1.03915,-0.531329,-0.634266,1.16559
1.06,-0.0633172,0.978118,1.04144,-0.52816,-0.637829,1.16599
1.065,-0.064474,0.976713,1.04119,-0.526681,-0.638353,1.16503
1.07,-0.0637705,0.973911,1.03768,-0.52547,-0.635924,1.16139
1.075,-0.0628577,0.969519,1.03238,-0.523461,-0.632333,1.15579
1.08,-0.0626797,0.963714,1.02639,-0.520212,-0.628777,1.14899
1.085,-0.0634626,0.957492,1.02095,-0.516168,-0.626088,1.14226
1.09,-0.0647,0.952904,1.0176,-0.512805,-0.624868,1.13767
1.095,-0.0658366,0.950679,1.01652,-0.510864,-0.624896,1.13576
1.1,-0.067111,0.949896,1.01701,-0.509676,-0.625915,1.13559
1.105,-0.0688934,0.949923,1.01882,-0.508662,-0.627989,1.13665
1.11,-0.0708237,0.951133,1.02196,-0.508247,-0.630917,1.13916
1.115,-0.0719745,0.953017,1.02499,-0.50867,-0.633334,1.142
1.12,-0.0712117,0.953934,1.02515,-0.50964,-0.632982,1.14262
1.125,-0.0686499,0.951764,1.02041,-0.509866,-0.628771,1.13864
1.13,-0.065833,0.947622,1.01346,-0.509101,-0.623127,1.13223
1.135,-0.0638842,0.945152,1.00904,-0.5088,-0.619451,1.12825
1.14,-0.0625194,0.945971,1.00849,-0.510061,-0.618348,1.12841
1.145,-0.0617424,0.950616,1.01236,-0.513191,-0.620132,1.13332
1.15,-0.0622831,0.959513,1.0218,-0.518016,-0.625893,1.14391
1.155,-0.0645262,0.971975,1.0365,-0.523916,-0.635678,1.15959
1.16,-0.0667856,0.986748,1.05353,-0.53114,-0.646816,1.17796
1.165,-0.0680457,1.00236,1.0704,-0.539426,-0.657284,1.19671
1.17,-0.069041,1.01734,1.08638,-0.5475,-0.667083,1.21458
1.175,-0.0699049,1.03097,1.10088,-0.554871,-0.67595,1.23082
1.18,-0.0699382,1.04372,1.11365,-0.562211,-0.683347,1.24556
1.185,-0.0685242,1.05609,1.12461,-0.570168,-0.688856,1.25902
1.19,-0.0657179,1.06817,1.13388,-0.578764,-0.692591,1.27135
1.195,-0.0624539,1.07956,1.14201,-0.587224,-0.695397,1.28262
1.2,-0.0595946,1.08914,1.14874,-0.594411,-0.697632,1.29204
1.205,-0.0565767,1.09632,1.15289,-0.600294,-0.698288,1.29858
1.21,-0.052523,1.10042,1.15295,-0.605006,-0.695979,1.30098
1.215,-0.0477828,1.09911,1.14689,-0.606984,-0.689747,1.29673
1.22,-0.0439039,1.08808,1.13199,-0.602857,-0.6789,1.28176
1.225,-0.0427108,1.0649,1.10761,-0.59016,-0.664137,1.2543
1.23,-0.0446907,1.03225,1.07694,-0.570166,-0.647572,1.21774
1.235,-0.0484337,0.996974,1.04541,-0.547639,-0.631529,1.17917
1.24,-0.0520203,0.96497,1.01699,-0.527091,-0.617193,1.14428
1.245,-0.0547712,0.939359,0.994131,-0.510717,-0.605583,1.1163
1.25,-0.0571702,0.921065,0.978235,-0.49877,-0.597791,1.09656
1.255,-0.0592396,0.90746,0.966699,-0.48972,-0.592326,1.08205
1.26,-0.0607169,0.896584,0.957301,-0.482588,-0.587752,1.07034
1.265,-0.0622066,0.888808,0.951014,-0.477238,-0.584983,1.06222
1.27,-0.0636524,0.883788,0.94744,-0.473505,-0.583754,1.05726
1.275,-0.0622192,0.881188,0.943407,-0.472832,-0.580598,1.05343
1.28,-0.0528568,0.8846,0.937456,-0.480207,-0.571757,1.05196
1.285,-0.030355,0.900687,0.931042,-0.502486,-0.555062,1.05755
1.29,0.00530239,0.93956,0.934257,-0.545516,-0.536332,1.08185
1.295,0.0449563,1.01336,0.968399,-0.611016,-0.53315,1.14417
1.3,0.0774596,1.13458,1.05713,-0.699774,-0.56561,1.26538
1.305,0.0948865,1.30451,1.20963,-0.807943,-0.643595,1.45154
1.31,0.087418,1.49256,1.40514,-0.912198,-0.760786,1.67298
1.315,0.0444693,1.63955,1.59508,-0.972266,-0.895243,1.86751
1.32,-0.0345631,1.69054,1.72511,-0.956081,-1.01595,1.97203
1.325,-0.133053,1.63245,1.7655,-0.865677,-1.09613,1.96181
1.33,-0.221176,1.50398,1.72516,-0.740628,-1.12372,1.86435
1.335,-0.272971,1.36079,1.63376,-0.628053,-1.10085,1.72891
1.34,-0.279634,1.23651,1.51614,-0.552452,-1.03679,1.58924
1.345,-0.249721,1.13811,1.38783,-0.512913,-0.945443,1.45836
1.35,-0.200024,1.06073,1.26075,-0.496927,-0.843379,1.34031
1.355,-0.146955,0.998969,1.14592,-0.49191,-0.746444,1.23835
1.36,-0.102651,0.950194,1.05285,-0.489329,-0.667126,1.15645
1.365,-0.0726618,0.914046,0.986708,-0.485773,-0.611627,1.0974
1.37,-0.0556037,0.889274,0.944878,-0.48132,-0.577628,1.05895
1.375,-0.0463592,0.873038,0.919397,-0.477283,-0.557579,1.03486
1.38,-0.0410413,0.861576,0.902617,-0.473736,-0.544821,1.01856
1.385,-0.0378973,0.853529,0.891426,-0.470905,-0.536545,1.00745
1.39,-0.0359221,0.849106,0.885028,-0.469492,-0.531711,1.0012
1.395,-0.0345635,0.846954,0.881517,-0.469033,-0.528899,0.997932
1.4,-0.0334626,0.844313,0.877776,-0.468145,-0.526103,0.994248
1.405,-0.0316282,0.840705,0.872333,-0.46712,-0.521902,0.989022
1.41,-0.0274718,0.838623,0.866095,-0.468318,-0.515901,0.984219
1.415,-0.0207583,0.839355,0.860113,-0.472617,-0.508571,0.981188
1.42,-0.0138116,0.841824,0.855636,-0.478053,-0.501975,0.980028
1.425,-0.00946887,0.844386,0.853855,-0.482039,-0.49844,0.980479
1.43,-0.00825229,0.846959,0.855211,-0.484227,-0.498521,0.982748
1.435,-0.00885492,0.850047,0.858902,-0.485662,-0.500999,0.986661
1.44,-0.00906029,0.853526,0.862586,-0.487552,-0.503245,0.990797
1.445,-0.00706449,0.85605,0.863114,-0.490162,-0.502398,0.992559
1.45,-0.00267833,0.857217,0.859896,-0.493368,-0.498007,0.991375
1.455,0.00321791,0.858316,0.855098,-0.497407,-0.491833,0.98924
1.46,0.00986765,0.860272,0.850404,-0.502375,-0.485284,0.987659
1.465,0.0166149,0.862957,0.846342,-0.507821,-0.479043,0.986864
1.47,0.0228467,0.865475,0.842629,-0.512873,-0.473301,0.986174
1.475,0.02928,0.868253,0.838973,-0.518191,-0.467476,0.985667
1.48,0.0363664,0.872009,0.835642,-0.52445,-0.461462,0.985913
1.485,0.0432741,0.876762,0.833488,-0.531183,-0.45623,0.987413
1.49,0.0494843,0.88209,0.832606,-0.537844,-0.452135,0.989979
1.495,0.0557114,0.886823,0.831111,-0.544172,-0.447677,0.991849
1.5,0.0628742,0.889528,0.826654,-0.54987,-0.440968,0.990838
1.505,0.0712756,0.890749,0.819473,-0.555425,-0.431972,0.987397
1.51,0.0810762,0.891679,0.810602,-0.56162,-0.421192,0.982812
1.515,0.0914945,0.892212,0.800718,-0.567943,-0.40947,0.977413
1.52,0.10039,0.891921,0.791531,-0.572911,-0.39903,0.971941
1.525,0.106247,0.891212,0.784964,-0.575883,-0.391857,0.96774
1.53,0.109267,0.890669,0.781402,-0.577313,-0.388057,0.96537
1.535,0.1099,0.889968,0.780068,-0.577273,-0.386921,0.964195
1.54,0.108036,0.888672,0.780636,-0.575449,-0.388326,0.963775
1.545,0.104207,0.887084,0.782876,-0.572322,-0.39183,0.964151
1.55,0.0992876,0.886495,0.787208,-0.569142,-0.397171,0.966313
1.555,0.0933333,0.887413,0.794079,-0.566234,-0.404576,0.970809
1.56,0.0857283,0.889045,0.803317,-0.562786,-0.4143,0.977085
1.565,0.0763304,0.891279,0.814949,-0.558649,-0.426441,0.985091
1.57,0.0652836,0.893666,0.828382,-0.553649,-0.440575,0.994224
1.575,0.0525787,0.894074,0.841496,-0.54655,-0.455481,1.00203
1.58,0.038841,0.8922,0.853359,-0.537536,-0.470262,1.0078
1.585,0.0254327,0.889797,0.864364,-0.528408,-0.484357,1.01277
1.59,0.012641,0.887446,0.874805,-0.519665,-0.49777,1.01744
1.595,-3.01E-05,0.885324,0.885354,-0.511124,-0.511177,1.0223
1.6,-0.0126757,0.883333,0.896008,-0.502674,-0.524629,1.0273
1.605,-0.0245429,0.881113,0.905656,-0.494541,-0.53705,1.03159
1.61,-0.034808,0.877839,0.912647,-0.486724,-0.547013,1.03374
1.615,-0.0431601,0.873632,0.916792,-0.479473,-0.554228,1.0337
1.62,-0.0493651,0.8683,0.917665,-0.472812,-0.558315,1.03113
1.625,-0.0531064,0.861682,0.914788,-0.466831,-0.558814,1.02564
1.63,-0.0544924,0.854923,0.909415,-0.462128,-0.556512,1.01864
1.635,-0.0540089,0.850008,0.904017,-0.45957,-0.553116,1.01269
1.64,-0.0521777,0.848461,0.900639,-0.459734,-0.550109,1.00984
1.645,-0.049828,0.849445,0.899273,-0.461659,-0.547963,1.00962
1.65,-0.0477731,0.850348,0.898121,-0.463366,-0.546112,1.00948
1.655,-0.0465258,0.850201,0.896727,-0.464002,-0.544587,1.00859
1.66,-0.0456962,0.848445,0.894141,-0.463467,-0.542615,1.00608
1.665,-0.0444907,0.845212,0.889703,-0.462297,-0.539357,1.00165
1.67,-0.0431784,0.841436,0.884614,-0.460874,-0.535661,0.996535
1.675,-0.042868,0.838106,0.880974,-0.45913,-0.53338,0.99251
1.68,-0.0440283,0.837151,0.881179,-0.457909,-0.534168,0.992078
1.685,-0.0460186,0.839045,0.885063,-0.457854,-0.53756,0.995414
1.69,-0.0479319,0.842615,0.890547,-0.458811,-0.541831,1.00064
1.695,-0.0487884,0.846457,0.895245,-0.460534,-0.545038,1.00557
1.7,-0.0478713,0.849185,0.897056,-0.462638,-0.545554,1.00819
1.705,-0.0454464,0.849929,0.895375,-0.464468,-0.543183,1.00765
1.71,-0.0426457,0.8486,0.891245,-0.465318,-0.539182,1.0045
1.715,-0.0404606,0.84576,0.88622,-0.464939,-0.535019,0.999959
1.72,-0.0391505,0.841896,0.881047,-0.463465,-0.531276,0.994741
1.725,-0.0384121,0.836917,0.875329,-0.461017,-0.527548,0.988565
1.73,-0.038303,0.830783,0.869086,-0.457538,-0.523881,0.98142
1.735,-0.0388353,0.824162,0.862997,-0.453408,-0.520673,0.974082
1.74,-0.0393668,0.81822,0.857587,-0.449671,-0.517856,0.967527
1.745,-0.040037,0.812605,0.852642,-0.446042,-0.515388,0.961431
1.75,-0.041741,0.806855,0.848596,-0.441738,-0.514036,0.955774
1.755,-0.0442316,0.800833,0.845064,-0.436824,-0.513435,0.950259
1.76,-0.0462947,0.794884,0.841179,-0.432198,-0.512383,0.944581
1.765,-0.0476207,0.789548,0.837169,-0.428352,-0.510833,0.939185
1.77,-0.0489131,0.785089,0.834002,-0.425031,-0.509751,0.934782
1.775,-0.0499132,0.782458,0.832372,-0.422935,-0.509387,0.932322
1.78,-0.0503189,0.78192,0.832239,-0.42239,-0.509545,0.931935
1.785,-0.0507966,0.782237,0.833033,-0.422297,-0.510279,0.932576
1.79,-0.0521687,0.782002,0.83417,-0.421369,-0.511728,0.933097
1.795,-0.0541525,0.780641,0.834793,-0.419438,-0.513233,0.932671
1.8,-0.0559274,0.778307,0.834234,-0.417066,-0.513935,0.931001
1.805,-0.0573268,0.774779,0.832105,-0.414221,-0.513514,0.927735
1.81,-0.0586143,0.770109,0.828723,-0.410781,-0.512304,0.923085
1.815,-0.0595874,0.766002,0.82559,-0.407849,-0.511057,0.918906
1.82,-0.0602138,0.764326,0.824539,-0.406519,-0.510812,0.917331
1.825,-0.060636,0.764953,0.825589,-0.406637,-0.511662,0.918299
1.83,-0.0605994,0.766391,0.82699,-0.407489,-0.51245,0.919939
1.835,-0.0599131,0.768147,0.82806,-0.408899,-0.512671,0.92157
1.84,-0.0588571,0.771196,0.830053,-0.411269,-0.513212,0.924481
1.845,-0.0577138,0.776729,0.834443,-0.415124,-0.515087,0.93021
1.85,-0.0568727,0.785394,0.842267,-0.420612,-0.519118,0.93973
1.855,-0.0566021,0.796086,0.852688,-0.426941,-0.524979,0.95192
1.86,-0.0568579,0.806897,0.863755,-0.433035,-0.531516,0.964551
1.865,-0.057069,0.815963,0.873032,-0.438148,-0.536994,0.975142
1.87,-0.0558027,0.822697,0.878499,-0.442766,-0.539419,0.982185
1.875,-0.0522278,0.828662,0.88089,-0.448274,-0.538735,0.98701
1.88,-0.0479195,0.836567,0.884487,-0.455326,-0.538325,0.99365
1.885,-0.0459048,0.848494,0.894398,-0.463375,-0.542884,1.00626
1.89,-0.0475286,0.863462,0.91099,-0.471079,-0.553401,1.02448
1.895,-0.0509832,0.879197,0.93018,-0.478169,-0.566475,1.04464
1.9,-0.0536424,0.89207,0.945712,-0.484066,-0.576977,1.06104
1.905,-0.0543084,0.897368,0.951677,-0.486741,-0.580805,1.06755
1.91,-0.0529964,0.891432,0.944428,-0.484071,-0.575863,1.05993
1.915,-0.0509973,0.873175,0.924173,-0.474684,-0.563014,1.0377
1.92,-0.0499666,0.845336,0.895303,-0.459207,-0.545751,1.00496
1.925,-0.0505186,0.813295,0.863814,-0.440389,-0.52789,0.968279
1.93,-0.052606,0.781501,0.834107,-0.420828,-0.511944,0.932772
1.935,-0.0556383,0.752614,0.808253,-0.402399,-0.498767,0.901167
1.94,-0.0585048,0.728559,0.787064,-0.386856,-0.488189,0.875045
1.945,-0.0608067,0.710154,0.77096,-0.3749,-0.480221,0.855121
1.95,-0.063058,0.697104,0.760162,-0.366067,-0.475286,0.841353
1.955,-0.0656108,0.688982,0.754592,-0.359903,-0.473544,0.833447
1.96,-0.0679591,0.68494,0.752899,-0.356214,-0.473923,0.830137
1.965,-0.0689475,0.682438,0.751386,-0.354199,-0.473619,0.827818
1.97,-0.066083,0.67985,0.745933,-0.354358,-0.468818,0.823176
1.975,-0.0548902,0.680939,0.73583,-0.36145,-0.456522,0.817972
1.98,-0.0292669,0.694694,0.723961,-0.384184,-0.434876,0.81906
1.985,0.0130369,0.733897,0.72086,-0.431242,-0.408662,0.839904
1.99,0.0627644,0.814861,0.752097,-0.506697,-0.397986,0.904683
1.995,0.10524,0.951451,0.846211,-0.61008,-0.4278,1.03788
2,0.128131,1.13949,1.01136,-0.731861,-0.509931,1.24179
2.005,0.119381,1.34029,1.22091,-0.842738,-0.635965,1.4787
2.01,0.0716297,1.48976,1.41813,-0.90147,-0.777404,1.67887
2.015,-0.00970752,1.53183,1.54154,-0.8788,-0.895614,1.77441
2.02,-0.105131,1.45702,1.56215,-0.780515,-0.962607,1.74312
2.025,-0.188173,1.30877,1.49694,-0.646978,-0.972903,1.61988
2.03,-0.23868,1.14711,1.38579,-0.524481,-0.937887,1.46237
2.035,-0.250688,1.00891,1.2596,-0.437759,-0.871962,1.30972
2.04,-0.231199,0.903656,1.13486,-0.388243,-0.788691,1.17693
2.045,-0.193641,0.826695,1.02034,-0.365494,-0.70089,1.06638
2.05,-0.151051,0.770166,0.921217,-0.357446,-0.619074,0.97652
2.055,-0.112764,0.727497,0.840261,-0.354916,-0.550229,0.905146
2.06,-0.0832354,0.694173,0.777409,-0.352725,-0.496893,0.849618
2.065,-0.063104,0.667879,0.730983,-0.349167,-0.458466,0.807633
2.07,-0.0511747,0.648553,0.699728,-0.344896,-0.433534,0.77843
2.075,-0.0451493,0.635563,0.680713,-0.340876,-0.419076,0.759952
2.08,-0.0425948,0.626631,0.669226,-0.337194,-0.41097,0.748163
2.085,-0.0413892,0.620777,0.662166,-0.334509,-0.406198,0.740707
2.09,-0.0396771,0.618774,0.658451,-0.334342,-0.403064,0.737406
2.095,-0.0367256,0.620784,0.657509,-0.337206,-0.400816,0.738022
2.1,-0.032914,0.624138,0.657052,-0.341343,-0.398352,0.739696
2.105,-0.0286591,0.625851,0.65451,-0.344789,-0.394428,0.739216
2.11,-0.0242342,0.625502,0.649736,-0.347142,-0.389117,0.736258
2.115,-0.0198067,0.624994,0.6448,-0.349405,-0.383711,0.733116
2.12,-0.0158217,0.625439,0.641261,-0.351962,-0.379366,0.731329
2.125,-0.01258,0.625969,0.638549,-0.35414,-0.375929,0.73007
2.13,-0.0100011,0.626071,0.636072,-0.355688,-0.373011,0.728699
2.135,-0.00779796,0.627295,0.635093,-0.357667,-0.371173,0.72884
2.14,-0.00524986,0.630843,0.636093,-0.361186,-0.370279,0.731466
2.145,-0.00156947,0.635747,0.637316,-0.366142,-0.368861,0.735003
2.15,0.0036195,0.640256,0.636636,-0.371741,-0.365472,0.737213
2.155,0.0100539,0.643689,0.633635,-0.377439,-0.360025,0.737463
2.16,0.0166063,0.646735,0.630129,-0.38298,-0.354217,0.737198
2.165,0.0231879,0.650717,0.627529,-0.389079,-0.348916,0.737995
2.17,0.0306872,0.655595,0.624907,-0.396225,-0.343073,0.739298
2.175,0.0386394,0.660391,0.621752,-0.403585,-0.33666,0.740245
2.18,0.0453671,0.664488,0.619121,-0.409835,-0.331257,0.741092
2.185,0.0510742,0.66834,0.617266,-0.415354,-0.326891,0.742245
2.19,0.0575309,0.672288,0.614757,-0.421361,-0.321715,0.743076
2.195,0.0662083,0.675685,0.609476,-0.428332,-0.313656,0.741988
2.2,0.0761637,0.678188,0.602024,-0.435525,-0.303605,0.73913
2.205,0.0848176,0.680067,0.595249,-0.441606,-0.294698,0.736304
2.21,0.0903685,0.681789,0.59142,-0.445805,-0.289282,0.735087
2.215,0.0928822,0.682761,0.589879,-0.447817,-0.286941,0.734758
2.22,0.0935008,0.681618,0.588117,-0.447515,-0.285567,0.733081
2.225,0.0934393,0.677075,0.583636,-0.444856,-0.283015,0.727871
2.23,0.0932104,0.669672,0.576462,-0.44045,-0.279005,0.719456
2.235,0.0929901,0.663193,0.570202,-0.436582,-0.275519,0.712101
2.24,0.093347,0.660577,0.56723,-0.435278,-0.273596,0.708874
2.245,0.0939949,0.661683,0.567689,-0.436291,-0.273487,0.709778
2.25,0.0922446,0.663162,0.570918,-0.436134,-0.276362,0.712496
2.255,0.0858474,0.663637,0.57779,-0.432715,-0.284023,0.716738
2.26,0.0751669,0.664858,0.589691,-0.427253,-0.29706,0.724314
2.265,0.0622504,0.667859,0.605608,-0.421528,-0.313708,0.735236
2.27,0.0485359,0.67185,0.623314,-0.415915,-0.331848,0.747763
2.275,0.0340487,0.674996,0.640948,-0.409367,-0.350393,0.75976
2.28,0.0187034,0.675855,0.657151,-0.401003,-0.368608,0.769611
2.285,0.00321798,0.674517,0.671299,-0.39129,-0.385716,0.777007
2.29,-0.0110289,0.670698,0.681727,-0.38086,-0.399963,0.780823
2.295,-0.0229217,0.663754,0.686676,-0.369985,-0.409686,0.779671
2.3,-0.0324412,0.654379,0.68682,-0.359076,-0.415266,0.774341
2.305,-0.0400032,0.644956,0.684959,-0.34927,-0.418557,0.767827
2.31,-0.0457702,0.637415,0.683185,-0.341586,-0.420862,0.762448
2.315,-0.0497876,0.631746,0.681533,-0.335993,-0.422228,0.758221
2.32,-0.0520997,0.627513,0.679613,-0.332215,-0.422454,0.754669
2.325,-0.0529503,0.624532,0.677483,-0.330003,-0.421715,0.751718
2.33,-0.0530396,0.622894,0.675934,-0.329006,-0.420873,0.749879
2.335,-0.0538193,0.623079,0.676899,-0.328662,-0.42188,0.750542
2.34,-0.0560213,0.624517,0.680538,-0.328221,-0.425253,0.753473
2.345,-0.0575431,0.626817,0.68436,-0.32867,-0.428337,0.757008
2.35,-0.0567767,0.630506,0.687282,-0.331242,-0.429582,0.760825
2.355,-0.0556383,0.634864,0.690502,-0.334416,-0.430784,0.7652
2.36,-0.0560483,0.638503,0.694551,-0.33628,-0.433359,0.769639
2.365,-0.0580655,0.640405,0.69847,-0.336214,-0.436786,0.773
2.37,-0.0602933,0.640846,0.70114,-0.335182,-0.439613,0.774796
2.375,-0.0614934,0.640095,0.701589,-0.334056,-0.440565,0.774621
2.38,-0.0613715,0.638249,0.699621,-0.33306,-0.439359,0.772419
2.385,-0.0601076,0.636335,0.696443,-0.332685,-0.436794,0.769479
2.39,-0.0580365,0.634582,0.692619,-0.332869,-0.433391,0.766259
2.395,-0.0558056,0.632478,0.688284,-0.332942,-0.4296,0.762542
2.4,-0.0539325,0.630563,0.684496,-0.332918,-0.426332,0.759249
2.405,-0.0524712,0.62879,0.681262,-0.332738,-0.423621,0.756359
2.41,-0.0513448,0.626515,0.67786,-0.332074,-0.421006,0.753081
2.415,-0.0505316,0.623317,0.673849,-0.330698,-0.418221,0.748918
2.42,-0.0497522,0.619837,0.66959,-0.329139,-0.415312,0.744451
2.425,-0.0489995,0.617404,0.666403,-0.328168,-0.413038,0.741206
2.43,-0.0484777,0.616214,0.664692,-0.327783,-0.411748,0.739531
2.435,-0.0482718,0.615014,0.663286,-0.327209,-0.410818,0.738027
2.44,-0.0478711,0.61315,0.661021,-0.326364,-0.409279,0.735642
2.445,-0.0470384,0.610599,0.657638,-0.325372,-0.406845,0.732217
2.45,-0.0467831,0.606359,0.653142,-0.323071,-0.404102,0.727173
2.455,-0.048346,0.600026,0.648372,-0.318512,-0.40225,0.720762
2.46,-0.0518163,0.594244,0.64606,-0.31317,-0.402919,0.716089
2.465,-0.0565788,0.592277,0.648856,-0.309286,-0.407283,0.716568
2.47,-0.0620585,0.594646,0.656704,-0.307489,-0.414978,0.722467
2.475,-0.0673645,0.59915,0.666515,-0.307026,-0.423705,0.730732
2.48,-0.0713181,0.602814,0.674132,-0.306859,-0.430385,0.737244
2.485,-0.0734178,0.602431,0.675849,-0.305426,-0.432589,0.738015
2.49,-0.0737613,0.597804,0.671565,-0.302556,-0.430314,0.73287
2.495,-0.0728513,0.591334,0.664185,-0.299346,-0.425528,0.724873
2.5,-0.0714916,0.585198,0.65669,-0.296588,-0.420415,0.717004
2.505,-0.0702652,0.579852,0.650117,-0.29421,-0.415913,0.710123
2.51,-0.0696626,0.575305,0.644968,-0.291933,-0.412592,0.704525
2.515,-0.0697663,0.571734,0.641501,-0.289811,-0.41065,0.700461
2.52,-0.0701952,0.570024,0.64022,-0.288576,-0.410158,0.698734
2.525,-0.0704387,0.571535,0.641973,-0.289308,-0.411311,0.700619
2.53,-0.0698513,0.576725,0.646577,-0.292644,-0.41363,0.706273
2.535,-0.0682558,0.585109,0.653364,-0.298405,-0.416627,0.715032
2.54,-0.0664647,0.596378,0.662842,-0.305945,-0.421065,0.727011
2.545,-0.0654185,0.609754,0.675172,-0.314272,-0.42758,0.741852
2.55,-0.0645088,0.623534,0.688043,-0.322753,-0.434486,0.757239
2.555,-0.0617707,0.636672,0.698442,-0.331919,-0.438909,0.770828
2.56,-0.0568471,0.648799,0.705646,-0.341764,-0.440226,0.781989
2.565,-0.0520835,0.660892,0.712975,-0.351496,-0.441707,0.793202
2.57,-0.0504316,0.674831,0.725263,-0.360497,-0.447847,0.808344
2.575,-0.0530216,0.690555,0.743576,-0.36808,-0.459916,0.827996
2.58,-0.0585228,0.705105,0.763628,-0.373304,-0.474669,0.847973
2.585,-0.0637557,0.716042,0.779798,-0.376598,-0.487026,0.863623
2.59,-0.0660044,0.721698,0.787702,-0.378565,-0.492887,0.871452
2.595,-0.0651403,0.71863,0.78377,-0.377292,-0.490118,0.86741
2.6,-0.0626248,0.703906,0.76653,-0.370243,-0.478713,0.848956
2.605,-0.0600535,0.679038,0.739092,-0.357371,-0.461387,0.818757
2.61,-0.0586199,0.648165,0.706785,-0.340374,-0.441906,0.78228
2.615,-0.0590131,0.61618,0.675193,-0.32168,-0.423894,0.745574
2.62,-0.0614154,0.586728,0.648144,-0.303289,-0.409664,0.712953
2.625,-0.0653619,0.561039,0.626401,-0.286179,-0.399389,0.685569
2.63,-0.0696415,0.540404,0.610045,-0.271794,-0.392417,0.664212
2.635,-0.0730857,0.526102,0.599188,-0.261549,-0.388137,0.649686
2.64,-0.0748541,0.517427,0.592281,-0.25552,-0.385171,0.64069
2.645,-0.0747321,0.511937,0.586669,-0.25242,-0.38186,0.63428
2.65,-0.0724679,0.507951,0.580418,-0.251426,-0.376944,0.62837
2.655,-0.0670397,0.504548,0.571588,-0.252595,-0.368711,0.621307
2.66,-0.0560445,0.503487,0.559532,-0.258331,-0.355403,0.613734
2.665,-0.0334719,0.513281,0.546752,-0.277017,-0.334993,0.61201
2.67,0.00530971,0.547646,0.542337,-0.319249,-0.310053,0.629302
2.675,0.0535286,0.623135,0.569607,-0.390672,-0.297958,0.68863
2.68,0.0955669,0.754379,0.658812,-0.490716,-0.32519,0.815906
2.685,0.116418,0.941877,0.825459,-0.611007,-0.409364,1.02037
2.69,0.10358,1.15387,1.05029,-0.725987,-0.546582,1.27257
2.695,0.0508844,1.32764,1.27676,-0.795894,-0.707759,1.50365
2.7,-0.0361805,1.3985,1.43468,-0.786535,-0.849201,1.63574
2.705,-0.138207,1.34359,1.4818,-0.695928,-0.935309,1.63124
2.71,-0.226739,1.19737,1.42411,-0.560394,-0.953118,1.51351
2.715,-0.279163,1.02237,1.30153,-0.429091,-0.912615,1.34171
2.72,-0.288071,0.867168,1.15524,-0.334341,-0.833295,1.16764
2.725,-0.260985,0.750164,1.01115,-0.282427,-0.734466,1.01689
2.73,-0.21407,0.667946,0.882016,-0.262045,-0.632825,0.89487
2.735,-0.164022,0.609809,0.773831,-0.257375,-0.54147,0.798844
2.74,-0.121948,0.566822,0.688769,-0.256848,-0.468067,0.724916
2.745,-0.0918623,0.534008,0.62587,-0.255273,-0.414383,0.669656
2.75,-0.0725551,0.509101,0.581656,-0.25204,-0.377709,0.629749
2.755,-0.0608087,0.491186,0.551995,-0.248479,-0.353802,0.602281
2.76,-0.0538443,0.479267,0.533111,-0.245618,-0.338879,0.584497
2.765,-0.0493304,0.472482,0.521812,-0.244306,-0.329749,0.574056
2.77,-0.0453098,0.470043,0.515353,-0.24522,-0.323699,0.568919
2.775,-0.0411162,0.470265,0.511381,-0.247769,-0.318984,0.566753
2.78,-0.037735,0.470853,0.508588,-0.250061,-0.31542,0.565481
2.785,-0.03636,0.470216,0.506576,-0.250487,-0.313464,0.563951
2.79,-0.0362858,0.468585,0.504871,-0.249588,-0.312437,0.562025
2.795,-0.0363508,0.46689,0.503241,-0.248572,-0.311533,0.560105
2.8,-0.0356868,0.466197,0.501884,-0.248555,-0.310367,0.558922
2.805,-0.0337715,0.46763,0.501402,-0.250488,-0.308982,0.559471
2.81,-0.0308158,0.470689,0.501505,-0.253961,-0.307335,0.561296
2.815,-0.0275113,0.474676,0.502187,-0.25817,-0.305821,0.563992
2.82,-0.0239834,0.478919,0.502902,-0.262657,-0.304197,0.566854
2.825,-0.0200839,0.482937,0.50302,-0.267228,-0.302014,0.569242
2.83,-0.0160457,0.486792,0.502838,-0.271786,-0.299578,0.571363
2.835,-0.0123065,0.490999,0.503306,-0.276373,-0.297689,0.574062
2.84,-0.00855,0.49563,0.50418,-0.281216,-0.296025,0.57724
2.845,-0.00395154,0.500294,0.504246,-0.286563,-0.293408,0.579971
2.85,0.00176356,0.504617,0.502853,-0.292359,-0.289304,0.581663
2.855,0.00838325,0.508172,0.499788,-0.298233,-0.283713,0.581946
2.86,0.0157919,0.511467,0.495675,-0.304413,-0.277061,0.581474
2.865,0.0241699,0.515557,0.491387,-0.311612,-0.269748,0.58136
2.87,0.0337126,0.520195,0.486483,-0.319799,-0.261407,0.581206
2.875,0.0441017,0.524484,0.480382,-0.328273,-0.251886,0.580159
2.88,0.0542411,0.527308,0.473067,-0.335758,-0.241809,0.577567
2.885,0.0634483,0.529146,0.465698,-0.342134,-0.232239,0.574373
2.89,0.0716125,0.531469,0.459856,-0.348189,-0.224153,0.572342
2.895,0.078059,0.534143,0.456084,-0.353455,-0.218253,0.571708
2.9,0.0826139,0.53621,0.453596,-0.357278,-0.214186,0.571464
2.905,0.0862603,0.536779,0.450519,-0.359712,-0.210305,0.570017
2.91,0.0906512,0.535182,0.44453,-0.361325,-0.204312,0.565637
2.915,0.0956335,0.53211,0.436476,-0.362428,-0.196786,0.559213
2.92,0.0984954,0.528896,0.430401,-0.362224,-0.191625,0.55385
2.925,0.097057,0.526578,0.429521,-0.360056,-0.191948,0.552004
2.93,0.0914925,0.525486,0.433993,-0.356212,-0.197743,0.553955
2.935,0.0830994,0.5255,0.442401,-0.351375,-0.207443,0.558818
2.94,0.0728385,0.526679,0.45384,-0.346131,-0.219971,0.566103
2.945,0.0611997,0.528568,0.467369,-0.340503,-0.234502,0.575004
2.95,0.0484862,0.530529,0.482043,-0.334295,-0.250314,0.584609
2.955,0.0347403,0.532064,0.497324,-0.327245,-0.267073,0.594317
2.96,0.0197859,0.532261,0.512475,-0.318724,-0.284454,0.603179
2.965,0.00397934,0.530775,0.526796,-0.30874,-0.301848,0.610588
2.97,-0.0118723,0.52799,0.539862,-0.29798,-0.318544,0.616524
2.975,-0.0263531,0.524216,0.550569,-0.287441,-0.333086,0.620527
2.98,-0.0388431,0.519116,0.557959,-0.277285,-0.344564,0.621849
2.985,-0.0492689,0.513112,0.562381,-0.2678,-0.353136,0.620936
2.99,-0.0573924,0.507173,0.564566,-0.259681,-0.359087,0.618768
2.995,-0.0625723,0.501581,0.564153,-0.253462,-0.36184,0.615302
3,-0.064276,0.496416,0.560693,-0.249496,-0.360826,0.610322
3.005,-0.064395,0.491458,0.555853,-0.246565,-0.3581,0.604665
3.01,-0.0654278,0.486608,0.552036,-0.243169,-0.356493,0.599662
3.015,-0.0674476,0.482964,0.550412,-0.239899,-0.356721,0.59662
3.02,-0.0693237,0.481565,0.550889,-0.238008,-0.35808,0.596087
3.025,-0.0704028,0.482791,0.553194,-0.238092,-0.360034,0.598126
3.03,-0.0706329,0.486316,0.556949,-0.239995,-0.362334,0.602329
3.035,-0.0705706,0.489788,0.560358,-0.242035,-0.364267,0.606302
3.04,-0.0701113,0.492164,0.562275,-0.243672,-0.365108,0.60878
3.045,-0.068607,0.493921,0.562528,-0.245555,-0.364386,0.609941
3.05,-0.0662988,0.495416,0.561714,-0.247751,-0.362583,0.610334
3.055,-0.0642279,0.496661,0.560889,-0.249665,-0.360911,0.610577
3.06,-0.0629825,0.497705,0.560687,-0.250987,-0.360076,0.611062
3.065,-0.0625128,0.498527,0.561039,-0.251733,-0.360008,0.61174
3.07,-0.0628881,0.49867,0.561558,-0.251599,-0.360524,0.612123
3.075,-0.0638031,0.498587,0.562391,-0.251023,-0.361533,0.612556
3.08,-0.0645801,0.498657,0.563237,-0.250614,-0.36247,0.613085
3.085,-0.0646914,0.498022,0.562714,-0.250184,-0.362232,0.612416
3.09,-0.0640625,0.495387,0.559449,-0.249025,-0.359984,0.609009
3.095,-0.0623838,0.491669,0.554052,-0.247848,-0.355899,0.603747
3.1,-0.0599645,0.489281,0.549245,-0.247866,-0.351727,0.599593
3.105,-0.0576829,0.487909,0.545592,-0.248391,-0.348301,0.596692
3.11,-0.0561678,0.485126,0.541294,-0.247659,-0.344945,0.592604
3.115,-0.0558138,0.480047,0.535861,-0.244931,-0.341603,0.586534
3.12,-0.0555994,0.47437,0.529969,-0.241777,-0.338078,0.579855
3.125,-0.055009,0.469906,0.524915,-0.239541,-0.334819,0.574359
3.13,-0.0550393,0.467359,0.522398,-0.238053,-0.333384,0.571436
3.135,-0.0566686,0.466056,0.522725,-0.23636,-0.334513,0.570872
3.14,-0.0594123,0.464849,0.524261,-0.234079,-0.336984,0.571063
3.145,-0.0620889,0.463176,0.525265,-0.231567,-0.339109,0.570676
3.15,-0.0646437,0.461104,0.525748,-0.228896,-0.340863,0.569759
3.155,-0.0670928,0.459242,0.526335,-0.226407,-0.342615,0.569022
3.16,-0.0689557,0.456925,0.525881,-0.223994,-0.343429,0.567423
3.165,-0.0700317,0.453292,0.523323,-0.221275,-0.342574,0.563849
3.17,-0.0706149,0.449083,0.519697,-0.218508,-0.340817,0.559325
3.175,-0.071076,0.445264,0.51634,-0.216037,-0.339145,0.555182
3.18,-0.0718918,0.441531,0.513423,-0.213411,-0.337931,0.551342
3.185,-0.0731171,0.437751,0.510868,-0.210521,-0.337164,0.547685
3.19,-0.0738853,0.434123,0.508008,-0.207983,-0.335956,0.543939
3.195,-0.073789,0.430993,0.504782,-0.206232,-0.334038,0.540269
3.2,-0.0733806,0.428204,0.501584,-0.204857,-0.331956,0.536813
3.205,-0.0732449,0.425466,0.498711,-0.203355,-0.330219,0.533574
3.21,-0.0738408,0.423263,0.497103,-0.201739,-0.329635,0.531373
3.215,-0.0750259,0.422913,0.497939,-0.200853,-0.330801,0.531654
3.22,-0.0761702,0.425249,0.50142,-0.201541,-0.333472,0.535012
3.225,-0.0762319,0.431663,0.507895,-0.205208,-0.337246,0.542454
3.23,-0.0747401,0.442488,0.517228,-0.212319,-0.341773,0.554092
3.235,-0.073058,0.456388,0.529446,-0.221316,-0.347856,0.569171
3.24,-0.0724049,0.471848,0.544253,-0.230618,-0.356027,0.586646
3.245,-0.0724876,0.487957,0.560445,-0.239871,-0.365423,0.605295
3.25,-0.0722955,0.503714,0.576009,-0.249079,-0.374299,0.623378
3.255,-0.071214,0.518425,0.589639,-0.258197,-0.381543,0.639741
3.26,-0.0694438,0.53197,0.601414,-0.267039,-0.38732,0.654359
3.265,-0.0681145,0.543189,0.611304,-0.274284,-0.392262,0.666547
3.27,-0.0675534,0.550594,0.618148,-0.278884,-0.39589,0.674773
3.275,-0.0667286,0.553722,0.620451,-0.281166,-0.396743,0.677909
3.28,-0.0650531,0.551164,0.616217,-0.280656,-0.393331,0.673987
3.285,-0.0632399,0.539452,0.602692,-0.274941,-0.384476,0.659417
3.29,-0.0620448,0.517672,0.579716,-0.263056,-0.370521,0.633577
3.295,-0.0616908,0.488283,0.549973,-0.246293,-0.353144,0.599437
3.3,-0.0618211,0.455578,0.517399,-0.227336,-0.334413,0.561749
3.305,-0.0624407,0.42413,0.48657,-0.208821,-0.316972,0.525793
3.31,-0.0641732,0.396756,0.460929,-0.192017,-0.303168,0.495185
3.315,-0.0667603,0.374845,0.441606,-0.177873,-0.293505,0.471378
3.32,-0.0696787,0.358498,0.428176,-0.16675,-0.287437,0.454186
3.325,-0.0727764,0.346925,0.419701,-0.15828,-0.284332,0.442612
3.33,-0.0759684,0.338943,0.414912,-0.151829,-0.28341,0.435238
3.335,-0.0786982,0.333225,0.411923,-0.146951,-0.28326,0.430212
3.34,-0.0796386,0.327866,0.407504,-0.143314,-0.281252,0.424566
3.345,-0.0754071,0.323265,0.398672,-0.143101,-0.27371,0.41681
3.35,-0.0612617,0.325514,0.386775,-0.152566,-0.258674,0.41124
3.355,-0.0337652,0.344472,0.378237,-0.179387,-0.23787,0.417256
3.36,0.00389022,0.391808,0.387918,-0.228456,-0.221718,0.450175
3.365,0.0419653,0.481432,0.439467,-0.302183,-0.229497,0.531681
3.37,0.0712712,0.623493,0.552222,-0.401122,-0.277677,0.678799
3.375,0.0839286,0.808205,0.724276,-0.515073,-0.369705,0.884778
3.38,0.0688051,0.992675,0.92387,-0.612845,-0.493671,1.10652
3.385,0.0180949,1.11397,1.09587,-0.653596,-0.622254,1.27585
3.39,-0.0633426,1.1262,1.18954,-0.613642,-0.723354,1.337
3.395,-0.154817,1.03411,1.18892,-0.507657,-0.775808,1.28346
3.4,-0.228072,0.887174,1.11525,-0.380532,-0.775565,1.1561
3.405,-0.263424,0.738686,1.00211,-0.274393,-0.730655,1.00505
3.41,-0.25835,0.616319,0.874669,-0.206673,-0.654149,0.860822
3.415,-0.224388,0.523295,0.747682,-0.172574,-0.561225,0.733798
3.42,-0.178955,0.452604,0.631559,-0.157991,-0.46795,0.625941
3.425,-0.136559,0.397011,0.53357,-0.150372,-0.386899,0.53727
3.43,-0.104219,0.352493,0.456712,-0.143341,-0.323853,0.467194
3.435,-0.082679,0.317886,0.400565,-0.135797,-0.279001,0.414797
3.44,-0.0691441,0.292728,0.361872,-0.129086,-0.248847,0.377933
3.445,-0.0603953,0.275871,0.336266,-0.124405,-0.229013,0.353417
3.45,-0.0540539,0.26526,0.319314,-0.12194,-0.215564,0.337504
3.455,-0.048702,0.259109,0.307811,-0.121479,-0.205833,0.327311
3.46,-0.0445036,0.2553,0.299804,-0.121703,-0.198786,0.320489
3.465,-0.0415251,0.25261,0.294135,-0.12187,-0.193794,0.315664
3.47,-0.0391276,0.250296,0.289424,-0.121918,-0.189689,0.311607
3.475,-0.0370404,0.247926,0.284966,-0.121755,-0.185911,0.307665
3.48,-0.0353237,0.245909,0.281233,-0.121582,-0.182764,0.304346
3.485,-0.0338219,0.244137,0.277959,-0.121425,-0.180007,0.301432
3.49,-0.0319902,0.242987,0.274977,-0.121819,-0.177227,0.299046
3.495,-0.0288598,0.243899,0.272759,-0.124153,-0.17414,0.298293
3.5,-0.0234996,0.247059,0.270559,-0.129072,-0.169775,0.298847
3.505,-0.0160694,0.250846,0.266915,-0.135548,-0.163381,0.298929
3.51,-0.00883106,0.253623,0.262454,-0.14133,-0.156626,0.297957
3.515,-0.00460822,0.255228,0.259836,-0.144695,-0.152677,0.297372
3.52,-0.003385,0.256742,0.260127,-0.146276,-0.152138,0.298414
3.525,-0.00268958,0.25867,0.261359,-0.14779,-0.152449,0.300239
3.53,-0.00029441,0.261406,0.2617,-0.150753,-0.151263,0.302015
3.535,0.00467256,0.264965,0.260293,-0.155676,-0.147582,0.303258
3.54,0.0117977,0.268542,0.256745,-0.161854,-0.14142,0.303274
3.545,0.0201909,0.272442,0.252251,-0.168952,-0.13398,0.302932
3.55,0.0288459,0.276857,0.248011,-0.176498,-0.126535,0.303033
3.555,0.0373214,0.281183,0.243861,-0.183888,-0.119246,0.303134
3.56,0.0459048,0.283346,0.237441,-0.190093,-0.110584,0.300677
3.565,0.054713,0.282687,0.227974,-0.194798,-0.100032,0.294831
3.57,0.0638665,0.281445,0.217578,-0.199366,-0.0887455,0.288111
3.575,0.0733181,0.281388,0.20807,-0.20479,-0.0777991,0.282589
3.58,0.0827874,0.282898,0.200111,-0.211129,-0.0677365,0.278865
3.585,0.0918675,0.284776,0.192909,-0.217455,-0.0583361,0.275791
3.59,0.0995374,0.28582,0.186282,-0.222486,-0.0500822,0.272568
3.595,0.104783,0.285127,0.180344,-0.225115,-0.0436249,0.26874
3.6,0.107614,0.281905,0.174291,-0.224889,-0.038496,0.263385
3.605,0.107897,0.276626,0.168729,-0.222004,-0.0351218,0.257126
3.61,0.10476,0.271124,0.166365,-0.217017,-0.0355677,0.252584
3.615,0.0982132,0.267684,0.16947,-0.21125,-0.0411403,0.252391
3.62,0.0895509,0.267478,0.177927,-0.20613,-0.0510238,0.257154
3.625,0.0803008,0.270593,0.190292,-0.202588,-0.0635034,0.266092
3.63,0.070806,0.27468,0.203874,-0.199466,-0.0768266,0.276293
3.635,0.0599426,0.276411,0.216468,-0.194193,-0.0903699,0.284563
3.64,0.0469567,0.275229,0.228273,-0.186014,-0.104683,0.290697
3.645,0.0323485,0.272215,0.239867,-0.17584,-0.119811,0.29565
3.65,0.0173309,0.267917,0.250587,-0.164688,-0.13467,0.299358
3.655,0.00288314,0.262825,0.259942,-0.153407,-0.148413,0.30182
3.66,-0.0107348,0.257162,0.267897,-0.142275,-0.160868,0.303143
3.665,-0.0231726,0.250292,0.273465,-0.131128,-0.171264,0.302391
3.67,-0.0338339,0.240911,0.274745,-0.119556,-0.178158,0.297715
3.675,-0.0424432,0.230449,0.272892,-0.108545,-0.182059,0.290604
3.68,-0.0491925,0.221412,0.270604,-0.0994309,-0.184635,0.284066
3.685,-0.053824,0.215502,0.269326,-0.0933449,-0.186571,0.279916
3.69,-0.0560562,0.212338,0.268394,-0.0902293,-0.187321,0.277551
3.695,-0.0571748,0.210008,0.267183,-0.0882383,-0.187268,0.275506
3.7,-0.0587883,0.208717,0.267506,-0.0865614,-0.188386,0.274947
3.705,-0.0612447,0.209307,0.270552,-0.0854839,-0.191563,0.277047
3.71,-0.0633013,0.211092,0.274393,-0.0853269,-0.194968,0.280295
3.715,-0.0637998,0.213058,0.276858,-0.0861741,-0.196679,0.282853
3.72,-0.0633016,0.21492,0.278222,-0.0875369,-0.197178,0.284715
3.725,-0.0626379,0.216723,0.279361,-0.0889612,-0.197453,0.286414
3.73,-0.0622109,0.217562,0.279773,-0.0896922,-0.197445,0.287137
3.735,-0.0622908,0.217006,0.279297,-0.0893251,-0.197216,0.286541
3.74,-0.0631929,0.216274,0.279467,-0.0883815,-0.197835,0.286216
3.745,-0.0647493,0.216997,0.281747,-0.0879005,-0.20005,0.28795
3.75,-0.0657709,0.219083,0.284854,-0.0885146,-0.202433,0.290948
3.755,-0.0650711,0.221565,0.286636,-0.0903515,-0.203058,0.293409
3.76,-0.0630841,0.223166,0.28625,-0.0924235,-0.201688,0.294112
3.765,-0.0613018,0.223098,0.2844,-0.0934132,-0.199591,0.293004
3.77,-0.0602887,0.221987,0.282276,-0.0933567,-0.19778,0.291136
3.775,-0.0596854,0.220706,0.280391,-0.092965,-0.196343,0.289308
3.78,-0.0592753,0.219272,0.278548,-0.0923742,-0.195042,0.287416
3.785,-0.059269,0.217677,0.276946,-0.0914569,-0.194114,0.285571
3.79,-0.0597289,0.215758,0.275487,-0.0900833,-0.193537,0.28362
3.795,-0.0601736,0.212726,0.272899,-0.0880759,-0.1923,0.280375
3.8,-0.0597845,0.208928,0.268712,-0.0861077,-0.189657,0.275765
3.805,-0.0581228,0.205351,0.263474,-0.0850024,-0.185674,0.270676
3.81,-0.0559648,0.202792,0.258757,-0.0847708,-0.181705,0.266476
3.815,-0.0545187,0.200419,0.254937,-0.0842353,-0.178664,0.2629
3.82,-0.0540197,0.196002,0.250021,-0.0819733,-0.175538,0.257511
3.825,-0.0536318,0.18989,0.243522,-0.0786688,-0.171562,0.250231
3.83,-0.0535559,0.185172,0.238728,-0.0759887,-0.16875,0.244739
3.835,-0.054875,0.183106,0.237981,-0.0740345,-0.169081,0.243115
3.84,-0.0575646,0.183252,0.240817,-0.0725656,-0.17227,0.244836
3.845,-0.0607309,0.183982,0.244713,-0.0711592,-0.176348,0.247507
3.85,-0.0639996,0.183456,0.247455,-0.068968,-0.179819,0.248787
3.855,-0.0675795,0.181178,0.248757,-0.0655859,-0.182637,0.248223
3.86,-0.0715045,0.178018,0.249523,-0.0614957,-0.185345,0.246841
3.865,-0.0746592,0.1751,0.249759,-0.0579892,-0.187303,0.245292
3.87,-0.0763005,0.172868,0.249168,-0.055753,-0.187909,0.243662
3.875,-0.0767355,0.170964,0.2477,-0.054403,-0.187313,0.241716
3.88,-0.0766045,0.168364,0.244969,-0.0529776,-0.18566,0.238638
3.885,-0.0762953,0.164303,0.240598,-0.0508113,-0.182959,0.23377
3.89,-0.0758485,0.159691,0.235539,-0.0484063,-0.17978,0.228186
3.895,-0.075276,0.155284,0.23056,-0.0461926,-0.176574,0.222767
3.9,-0.0749101,0.151403,0.226313,-0.0441631,-0.173911,0.218074
3.905,-0.0751106,0.149005,0.224116,-0.0426631,-0.172758,0.215422
3.91,-0.0755305,0.149386,0.224916,-0.0426403,-0.173463,0.216103
3.915,-0.0753575,0.153788,0.229145,-0.0452817,-0.175805,0.221086
3.92,-0.074504,0.162298,0.236802,-0.0506881,-0.179733,0.230421
3.925,-0.072909,0.173411,0.24632,-0.058025,-0.184307,0.242332
3.93,-0.0706887,0.185241,0.255929,-0.0661365,-0.188573,0.254709
3.935,-0.0692889,0.196686,0.265975,-0.0735527,-0.193565,0.267117
3.94,-0.0700011,0.207716,0.277717,-0.0795098,-0.200755,0.280265
3.945,-0.0719479,0.219626,0.291574,-0.0852622,-0.20988,0.295142
3.95,-0.0729912,0.233004,0.305995,-0.0923834,-0.218808,0.311191
3.955,-0.0718561,0.247633,0.31949,-0.101485,-0.225943,0.327428
3.96,-0.0692445,0.262605,0.33185,-0.111637,-0.231572,0.343209
3.965,-0.066765,0.275691,0.342456,-0.120623,-0.236264,0.356887
3.97,-0.0650282,0.284488,0.349516,-0.126705,-0.239337,0.366042
3.975,-0.063435,0.286808,0.350243,-0.128964,-0.238837,0.367801
3.98,-0.0612021,0.280749,0.341951,-0.126756,-0.232761,0.359516
3.985,-0.0581969,0.264332,0.322529,-0.119012,-0.219812,0.338824
3.99,-0.0551395,0.23733,0.29247,-0.105188,-0.200692,0.30588
3.995,-0.0532869,0.203814,0.2571,-0.0869066,-0.179202,0.266109
4,-0.0544798,0.169989,0.224469,-0.0666892,-0.161051,0.22774
4.005,-0.059276,0.140255,0.199531,-0.0467534,-0.149422,0.196176
4.01,-0.0661968,0.115383,0.18158,-0.0283977,-0.143054,0.171451
4.015,-0.072854,0.0947015,0.167555,-0.0126137,-0.1388,0.151414
4.02,-0.0776279,0.0786045,0.156232,-0.000563831,-0.135019,0.135583
4.025,-0.0804411,0.0677697,0.148211,0.00731584,-0.132012,0.124696
4.03,-0.0823352,0.061017,0.143352,0.012308,-0.130301,0.117993
4.035,-0.0836354,0.0568826,0.140518,0.0154457,-0.129415,0.113969
4.04,-0.082651,0.0548331,0.137484,0.0160606,-0.127095,0.111034
4.045,-0.0760246,0.0561441,0.132169,0.011478,-0.1202,0.108722
4.05,-0.0589971,0.066604,0.125601,-0.00439186,-0.106578,0.11097
4.055,-0.0293587,0.0965295,0.125888,-0.038781,-0.0896318,0.128413
4.06,0.00681264,0.15882,0.152007,-0.095628,-0.0838282,0.179456
4.065,0.0383532,0.266914,0.22856,-0.176246,-0.109816,0.286062
4.07,0.0565766,0.4252,0.368624,-0.278154,-0.18016,0.458314
4.075,0.0548746,0.61324,0.558365,-0.385736,-0.29069,0.676426
4.08,0.0254565,0.778781,0.753325,-0.464327,-0.420235,0.884562
4.085,-0.0349377,0.860651,0.895588,-0.476725,-0.537239,1.01396
4.09,-0.117164,0.829853,0.947017,-0.411471,-0.614405,1.02588
4.095,-0.198096,0.712074,0.910169,-0.296745,-0.639857,0.936602
4.1,-0.252329,0.562218,0.814546,-0.178914,-0.61596,0.794874
4.105,-0.267434,0.422784,0.690218,-0.0896915,-0.5529,0.642592
4.11,-0.247937,0.309799,0.557736,-0.0357161,-0.465156,0.500872
4.115,-0.208604,0.222374,0.430978,-0.00795035,-0.369263,0.377213
4.12,-0.165433,0.154739,0.320172,0.00617378,-0.280364,0.27419
4.125,-0.128889,0.10325,0.232139,0.0148029,-0.20844,0.193637
4.13,-0.102494,0.0653826,0.167876,0.0214261,-0.156098,0.134672
4.135,-0.0850152,0.0386627,0.123678,0.0267616,-0.120489,0.0937273
4.14,-0.0734261,0.0198498,0.0932759,0.0309323,-0.0962454,0.0653131
4.145,-0.0653568,0.00609026,0.0714471,0.0342175,-0.0789837,0.0447662
4.15,-0.0596222,-0.00425707,0.0553651,0.0368807,-0.0663879,0.0295072
4.155,-0.0559167,-0.0118188,0.044098,0.0391071,-0.0577435,0.0186364
4.16,-0.0539437,-0.0164706,0.0374731,0.0406537,-0.0527795,0.0121258
4.165,-0.0527354,-0.0181766,0.0345588,0.0409411,-0.0503993,0.00945828
4.17,-0.0515119,-0.0179179,0.0335941,0.0400853,-0.049136,0.00905065
4.175,-0.0498218,-0.0166939,0.0331279,0.0384028,-0.047891,0.00948817
4.18,-0.0472544,-0.0157618,0.0314926,0.0363823,-0.0454645,0.0090822
4.185,-0.0437846,-0.0158094,0.0279752,0.0344066,-0.0414305,0.00702391
4.19,-0.0401633,-0.0161983,0.023965,0.0325404,-0.0370245,0.00448409
4.195,-0.0370273,-0.0163908,0.0206365,0.030841,-0.0332922,0.00245124
4.2,-0.0337439,-0.016085,0.0176589,0.0287687,-0.0296774,0.000908668
4.205,-0.0300826,-0.0147147,0.0153679,0.0258637,-0.0262408,0.000377132
4.21,-0.026939,-0.0122238,0.0147152,0.0226106,-0.0240491,0.00143846
4.215,-0.0243912,-0.00894365,0.0154476,0.0192459,-0.0230009,0.00375503
4.22,-0.0218172,-0.00553333,0.0162839,0.0157908,-0.0219977,0.00620682
4.225,-0.0185643,-0.0029348,0.0156295,0.0124125,-0.0197418,0.00732929
4.23,-0.0141761,-0.000866913,0.0133092,0.00868507,-0.0158686,0.00718353
4.235,-0.00803691,0.00158675,0.00962366,0.003724,-0.0101963,0.00647233
4.24,0.000221222,0.00460119,0.00437997,-0.00278422,-0.00240105,0.00518527
4.245,0.0101101,0.00830073,-0.00180933,-0.0106295,0.00688166,0.00374781
4.25,0.0201181,0.0126436,-0.00747443,-0.018915,0.0159305,0.00298444
4.255,0.0289981,0.0169945,-0.0120036,-0.0265538,0.0236724,0.00288147
4.26,0.036926,0.0205307,-0.0163953,-0.0331726,0.0307851,0.00238753
4.265,0.0452261,0.0229766,-0.0222495,-0.0393768,0.038957,0.000419792
4.27,0.0554132,0.0251594,-0.0302538,-0.0465186,0.0494598,-0.00294122
4.275,0.0668423,0.0266687,-0.0401736,-0.0539886,0.0617856,-0.00779706
4.28,0.0770179,0.0272285,-0.0497894,-0.0601867,0.0732122,-0.0130255
4.285,0.0846306,0.0276003,-0.0570303,-0.0647965,0.0817879,-0.0169914
4.29,0.090207,0.0281412,-0.0620658,-0.0683283,0.0879147,-0.0195863
4.295,0.0943888,0.0279455,-0.0664433,-0.0706297,0.0928564,-0.0222267
4.3,0.0958358,0.0261855,-0.0696503,-0.070449,0.0955434,-0.0250944
4.305,0.0928485,0.0228506,-0.0699979,-0.0667989,0.0940194,-0.0272205
4.31,0.086094,0.0182466,-0.0678474,-0.0602411,0.0888781,-0.028637
4.315,0.0781535,0.012662,-0.0654915,-0.0524323,0.0829334,-0.0305011
4.32,0.0711971,0.00796003,-0.0632371,-0.0457014,0.0776156,-0.0319142
4.325,0.065089,0.00582474,-0.0592642,-0.040942,0.0717953,-0.0308533
4.33,0.0579944,0.00627048,-0.0517239,-0.0371033,0.0633459,-0.0262426
4.335,0.048524,0.00853748,-0.0399865,-0.0329444,0.0511015,-0.0181571
4.34,0.0365895,0.0105092,-0.0260803,-0.0271924,0.0361824,-0.00899001
4.345,0.0226663,0.00960557,-0.0130607,-0.0186321,0.020627,-0.00199482
4.35,0.0078208,0.00596517,-0.00185563,-0.00795933,0.00558669,0.00237264
4.355,-0.00640858,0.000812942,0.00722152,0.00323064,-0.00786934,0.0046387
4.36,-0.0189668,-0.00592087,0.0130459,0.0143689,-0.0184825,0.00411365
4.365,-0.0302511,-0.0132545,0.0169966,0.025118,-0.0272785,0.00216053
4.37,-0.0418266,-0.0197029,0.0221237,0.035524,-0.0369217,0.00139764
4.375,-0.0539809,-0.0247892,0.0291917,0.0454779,-0.0480197,0.00254177
4.38,-0.0651267,-0.0286346,0.036492,0.0541331,-0.0586696,0.00453648
4.385,-0.0725834,-0.0324944,0.040089,0.0606666,-0.0650514,0.00438478
4.39,-0.0749172,-0.0377915,0.0371257,0.0650724,-0.064688,-0.000384399
4.395,-0.0741994,-0.0441153,0.030084,0.068309,-0.060208,-0.00810097
4.4,-0.0741646,-0.0496628,0.0245018,0.0714917,-0.0569651,-0.0145267
4.405,-0.076116,-0.053283,0.0228329,0.0747085,-0.0571281,-0.0175804
4.41,-0.0789724,-0.0551543,0.0238181,0.077438,-0.0593461,-0.018092
4.415,-0.0813958,-0.0558838,0.025512,0.0792583,-0.0617232,-0.0175351
4.42,-0.08278,-0.0563537,0.0264263,0.0803289,-0.0630503,-0.0172786
4.425,-0.0830996,-0.057517,0.0255826,0.0811849,-0.0627476,-0.0184373
4.43,-0.0820408,-0.0590745,0.0229662,0.0814729,-0.0606258,-0.0208471
4.435,-0.0790282,-0.0592789,0.0197493,0.0798516,-0.0570292,-0.0228224
4.44,-0.074789,-0.0575751,0.0172139,0.0764204,-0.0531178,-0.0233026
4.445,-0.0713482,-0.0548638,0.0164844,0.0728685,-0.0507102,-0.0221583
4.45,-0.070052,-0.0518839,0.0181681,0.0703997,-0.0509339,-0.0194658
4.455,-0.0703927,-0.0490199,0.0213728,0.0689429,-0.0529808,-0.0159621
4.46,-0.0712586,-0.0468448,0.0244138,0.068187,-0.0552364,-0.0129506
4.465,-0.0718467,-0.0465099,0.0253369,0.0683332,-0.0561089,-0.0122242
4.47,-0.0721082,-0.0483812,0.023727,0.0695645,-0.0553304,-0.0142341
4.475,-0.0729572,-0.0513021,0.0216551,0.0717411,-0.0546244,-0.0171167
4.48,-0.0747618,-0.0540256,0.0207362,0.0743554,-0.0551358,-0.0192196
4.485,-0.0766911,-0.0559501,0.0207411,0.0765804,-0.0562525,-0.0203279
4.49,-0.0771147,-0.0569118,0.0202029,0.0773802,-0.0561863,-0.0211939
4.495,-0.0755772,-0.0575887,0.0179885,0.0768833,-0.0540202,-0.0228631
4.5,-0.0736029,-0.0594982,0.0141047,0.0768459,-0.050638,-0.0262079
4.505,-0.0728445,-0.0630192,0.00982533,0.0784409,-0.0477294,-0.0307115
4.51,-0.0730527,-0.0677266,0.00532608,0.0812789,-0.045252,-0.0360269
4.515,-0.0734828,-0.0727636,0.000719234,0.0844353,-0.0428405,-0.0415948
4.52,-0.0749335,-0.0766403,-0.00170679,0.0875111,-0.0422774,-0.0452337
4.525,-0.0779184,-0.079106,-0.00118768,0.090658,-0.0443005,-0.0463576
4.53,-0.0811367,-0.0814161,-0.000279404,0.0938498,-0.046683,-0.0471669
4.535,-0.0831375,-0.0839491,-0.000811577,0.0964675,-0.0475309,-0.0489366
4.54,-0.0842545,-0.0873522,-0.00309768,0.0990772,-0.0468559,-0.0522213
4.545,-0.0856667,-0.0928402,-0.00717343,0.103061,-0.0453181,-0.0577428
4.55,-0.0871578,-0.0991224,-0.0119646,0.107549,-0.0434128,-0.0641361
4.555,-0.0879092,-0.103933,-0.0160237,0.11076,-0.0415031,-0.069257
4.56,-0.0879539,-0.106775,-0.0188209,0.112427,-0.0399139,-0.0725127
4.565,-0.0882514,-0.108578,-0.0203264,0.113639,-0.0392165,-0.0744228
4.57,-0.0898357,-0.110323,-0.0204873,0.115562,-0.0400383,-0.0755234
4.575,-0.092642,-0.113069,-0.0204266,0.118767,-0.0416935,-0.0770735
4.58,-0.0954401,-0.116933,-0.0214926,0.122613,-0.0426936,-0.0799199
4.585,-0.0964685,-0.120835,-0.0243668,0.12546,-0.041628,-0.0838324
4.59,-0.0950086,-0.123645,-0.0286368,0.12624,-0.0383198,-0.0879201
4.595,-0.0922442,-0.126155,-0.0339104,0.126093,-0.033679,-0.0924135
4.6,-0.0898736,-0.129056,-0.0391824,0.126399,-0.0292666,-0.0971324
4.605,-0.0887741,-0.131837,-0.0430628,0.12737,-0.0263915,-0.100978
4.61,-0.0888835,-0.133956,-0.0450725,0.128656,-0.0252943,-0.103362
4.615,-0.089772,-0.135965,-0.0461931,0.130329,-0.0251603,-0.105169
4.62,-0.0913875,-0.138831,-0.0474436,0.132917,-0.025371,-0.107546
4.625,-0.0936283,-0.14266,-0.0490319,0.136421,-0.0257477,-0.110673
4.63,-0.0956694,-0.145859,-0.0501893,0.139446,-0.0262579,-0.113188
4.635,-0.0967831,-0.147485,-0.0507019,0.141028,-0.026605,-0.114423
4.64,-0.0969809,-0.148993,-0.0520119,0.142013,-0.0259628,-0.11605
4.645,-0.0965572,-0.14932,-0.0527628,0.141957,-0.0252847,-0.116672
4.65,-0.0959728,-0.14574,-0.0497669,0.139553,-0.026677,-0.112876
4.655,-0.09531,-0.136434,-0.0411235,0.133797,-0.0312845,-0.102513
4.66,-0.0944964,-0.122015,-0.0275185,0.125003,-0.0386697,-0.0863332
4.665,-0.0942089,-0.105237,-0.0110286,0.11515,-0.0480242,-0.0671262
4.67,-0.0947526,-0.0879514,0.00680126,0.105484,-0.0586322,-0.046852
4.675,-0.0954388,-0.0709484,0.0244903,0.0960637,-0.0692411,-0.0268226
4.68,-0.0947874,-0.0549179,0.0398695,0.0864324,-0.0777442,-0.00868816
4.685,-0.0922785,-0.0408107,0.0514678,0.076839,-0.0829919,0.00615292
4.69,-0.0889787,-0.028717,0.0602617,0.0679516,-0.086164,0.0182123
4.695,-0.0863725,-0.0182221,0.0681504,0.0603877,-0.0892138,0.0288261
4.7,-0.0844066,-0.00981585,0.0745908,0.0543993,-0.0917971,0.0373978
4.705,-0.0811567,-0.00417084,0.0769859,0.0492639,-0.0913036,0.0420398
4.71,-0.0760152,-0.00358553,0.0724296,0.0459575,-0.0857046,0.0397471
4.715,-0.0709026,-0.0116902,0.0592125,0.047685,-0.075122,0.027437
4.72,-0.0684385,-0.0299627,0.0384758,0.056812,-0.0617269,0.00491499
4.725,-0.0703445,-0.0565034,0.0138411,0.0732356,-0.0486045,-0.0246311
4.73,-0.0761991,-0.0874673,-0.0112682,0.0944928,-0.0374879,-0.0570049
4.735,-0.083395,-0.118611,-0.0352163,0.116628,-0.027816,-0.0888123
4.74,-0.0888992,-0.146291,-0.0573917,0.135787,-0.0181908,-0.117596
4.745,-0.0911858,-0.168842,-0.0776563,0.150127,-0.00781126,-0.142316
4.75,-0.0918825,-0.186058,-0.0941751,0.160469,0.00132368,-0.161792
4.755,-0.0939788,-0.198941,-0.104962,0.169117,0.00634106,-0.175458
4.76,-0.0980939,-0.209029,-0.110935,0.177317,0.00741359,-0.184731
4.765,-0.102694,-0.21793,-0.115236,0.185112,0.00724145,-0.192353
4.77,-0.105687,-0.226265,-0.120577,0.191653,0.00859674,-0.200249
4.775,-0.103889,-0.233269,-0.12938,0.194658,0.0147169,-0.209375
4.78,-0.0934894,-0.234902,-0.141413,0.189597,0.0276687,-0.217266
4.785,-0.0715553,-0.222164,-0.150609,0.169579,0.0456415,-0.21522
4.79,-0.0398032,-0.183075,-0.143272,0.128679,0.0597377,-0.188416
4.795,-0.006037,-0.103846,-0.097809,0.063441,0.0529846,-0.116426
4.8,0.0209374,0.0274573,0.00651988,-0.0279407,0.00832395,0.0196167
4.805,0.0340674,0.206835,0.172768,-0.139085,-0.0800787,0.219164
4.81,0.0243834,0.399267,0.374884,-0.244595,-0.202361,0.446956
4.815,-0.0170155,0.54304,0.560055,-0.3037,-0.333172,0.636872
4.82,-0.0891764,0.584078,0.673255,-0.285732,-0.44019,0.725921
4.825,-0.176488,0.514865,0.691353,-0.195362,-0.501049,0.69641
4.83,-0.253055,0.378613,0.631668,-0.0724905,-0.510795,0.583286
4.835,-0.297042,0.231701,0.528743,0.0377248,-0.476767,0.439042
4.84,-0.30144,0.108203,0.409642,0.111565,-0.410543,0.298978
4.845,-0.273817,0.0142507,0.288068,0.149861,-0.324404,0.174543
4.85,-0.228781,-0.0581604,0.17062,0.165665,-0.230594,0.0649287
4.855,-0.181318,-0.11675,0.0645679,0.17209,-0.141962,-0.0301276
4.86,-0.142223,-0.164145,-0.0219222,0.176882,-0.0694557,-0.107426
4.865,-0.115362,-0.199502,-0.0841402,0.181787,-0.0180259,-0.163761
4.87,-0.0987207,-0.223463,-0.124742,0.186013,0.0150237,-0.201037
4.875,-0.0884687,-0.239692,-0.151223,0.189463,0.0362312,-0.225695
4.88,-0.0816612,-0.251576,-0.169915,0.192395,0.0509534,-0.243348
4.885,-0.0765621,-0.260176,-0.183614,0.194416,0.0618065,-0.256222
4.89,-0.0724415,-0.265701,-0.19326,0.195227,0.0697544,-0.264981
4.895,-0.0691072,-0.268494,-0.199386,0.194914,0.0752167,-0.27013
4.9,-0.066371,-0.269388,-0.203017,0.19385,0.0788923,-0.272743
4.905,-0.0641353,-0.270153,-0.206018,0.193002,0.0819161,-0.274918
4.91,-0.06253,-0.271898,-0.209368,0.193082,0.0847769,-0.277859
4.915,-0.0611179,-0.273467,-0.212349,0.193173,0.0873135,-0.280486
4.92,-0.0585638,-0.273568,-0.215004,0.191756,0.090321,-0.282077
4.925,-0.0540067,-0.272249,-0.218242,0.188364,0.0948213,-0.283185
4.93,-0.0481284,-0.270861,-0.222732,0.184168,0.100808,-0.284976
4.935,-0.0422152,-0.269846,-0.227631,0.180169,0.10705,-0.287218
4.94,-0.0367708,-0.26776,-0.230989,0.175821,0.112132,-0.287953
4.945,-0.0319233,-0.263406,-0.231483,0.170508,0.115216,-0.285724
4.95,-0.0280469,-0.257729,-0.229682,0.164993,0.116414,-0.281407
4.955,-0.0249523,-0.252548,-0.227596,0.160215,0.116996,-0.277211
4.96,-0.022063,-0.249414,-0.227351,0.156737,0.118523,-0.27526
4.965,-0.0192309,-0.248257,-0.229026,0.154434,0.121125,-0.275559
4.97,-0.0162262,-0.247041,-0.230815,0.151997,0.123893,-0.27589
4.975,-0.0118393,-0.243573,-0.231733,0.147462,0.126956,-0.274418
4.98,-0.00475643,-0.238477,-0.23372,0.140431,0.132192,-0.272623
4.985,0.00469785,-0.234083,-0.238781,0.132436,0.140573,-0.273008
4.99,0.014614,-0.230947,-0.245561,0.1249,0.150212,-0.275112
4.995,0.023679,-0.228083,-0.251762,0.118012,0.159026,-0.277038
5,0.0322411,-0.22508,-0.257321,0.111336,0.167179,-0.278515
5.005,0.0410078,-0.222676,-0.263684,0.104886,0.175914,-0.2808
5.01,0.0500802,-0.221407,-0.271487,0.0989153,0.185657,-0.284572
5.015,0.0586675,-0.220453,-0.279121,0.0934071,0.195022,-0.288429
5.02,0.0655003,-0.21933,-0.28483,0.0888133,0.202263,-0.291076
5.025,0.0704275,-0.219011,-0.289439,0.085785,0.207769,-0.293554
5.03,0.0749144,-0.219835,-0.29475,0.08367,0.213426,-0.297096
5.035,0.0792607,-0.221284,-0.300545,0.0819973,0.219281,-0.301278
5.04,0.0822202,-0.222577,-0.304797,0.081035,0.223444,-0.304479
5.045,0.0827818,-0.221945,-0.304727,0.080346,0.223728,-0.304074
5.05,0.0803559,-0.219226,-0.299582,0.0801766,0.219357,-0.299534
5.055,0.0746467,-0.216801,-0.291448,0.0820731,0.211365,-0.293438
5.06,0.0655396,-0.216239,-0.281778,0.0870062,0.200524,-0.28753
5.065,0.0536121,-0.215642,-0.269254,0.0935481,0.186407,-0.279955
5.07,0.0398659,-0.213385,-0.253251,0.100181,0.169231,-0.269412
5.075,0.024631,-0.211177,-0.235808,0.107702,0.150364,-0.258067
5.08,0.00817913,-0.211378,-0.219557,0.117317,0.131483,-0.2488
5.085,-0.0086311,-0.214301,-0.20567,0.12871,0.11376,-0.24247
5.09,-0.0246383,-0.219444,-0.194806,0.140921,0.0982464,-0.239168
5.095,-0.0387804,-0.226176,-0.187395,0.152972,0.0858027,-0.238775
5.1,-0.0504122,-0.233355,-0.182943,0.163833,0.0765165,-0.240349
5.105,-0.0598227,-0.239357,-0.179535,0.172732,0.0691157,-0.241847
5.11,-0.0679106,-0.244242,-0.176332,0.180221,0.062597,-0.242819
5.115,-0.0751128,-0.248839,-0.173727,0.187034,0.0569347,-0.243969
5.12,-0.080909,-0.252722,-0.171813,0.192622,0.0524834,-0.245105
5.125,-0.0850381,-0.255414,-0.170376,0.19656,0.0492701,-0.24583
5.13,-0.0879369,-0.257384,-0.169447,0.199371,0.0470596,-0.24643
5.135,-0.089849,-0.258926,-0.169077,0.201365,0.0457423,-0.247108
5.14,-0.0905123,-0.259933,-0.169421,0.20233,0.0455579,-0.247888
5.145,-0.0892569,-0.259948,-0.170691,0.201613,0.0470159,-0.248629
5.15,-0.085771,-0.258148,-0.172377,0.198562,0.0500021,-0.248564
5.155,-0.0812632,-0.255746,-0.174483,0.194572,0.0538203,-0.248392
5.16,-0.0776359,-0.254928,-0.177292,0.192006,0.0575364,-0.249542
5.165,-0.0762004,-0.255312,-0.179111,0.191399,0.0594156,-0.250814
5.17,-0.0773156,-0.255138,-0.177823,0.191942,0.0580278,-0.24997
5.175,-0.0796585,-0.254062,-0.174403,0.192674,0.054701,-0.247375
5.18,-0.0811224,-0.25246,-0.171337,0.192594,0.0520855,-0.244679
5.185,-0.0814928,-0.250523,-0.16903,0.191689,0.0505397,-0.242229
5.19,-0.0817898,-0.24797,-0.166181,0.190387,0.0487231,-0.23911
5.195,-0.0824486,-0.244523,-0.162075,0.188777,0.045972,-0.234749
5.2,-0.0832247,-0.240224,-0.156999,0.186743,0.0425935,-0.229336
5.205,-0.0840954,-0.236926,-0.15283,0.185341,0.039684,-0.225025
5.21,-0.0849886,-0.236708,-0.151719,0.185731,0.0385269,-0.224258
5.215,-0.0853786,-0.239258,-0.153879,0.187429,0.039549,-0.226978
5.22,-0.0849575,-0.242733,-0.157776,0.189192,0.0420417,-0.231234
5.225,-0.0839542,-0.245559,-0.161605,0.190245,0.0448317,-0.235076
5.23,-0.0824341,-0.246892,-0.164458,0.190136,0.0473564,-0.237493
5.235,-0.0806187,-0.246489,-0.16587,0.188856,0.04922,-0.238076
5.24,-0.0791592,-0.245649,-0.166489,0.187528,0.0504202,-0.237948
5.245,-0.0786731,-0.246404,-0.167731,0.187683,0.0514175,-0.239101
5.25,-0.0795294,-0.248852,-0.169323,0.189591,0.0518423,-0.241434
5.255,-0.0814219,-0.251888,-0.170466,0.192437,0.0514097,-0.243846
5.26,-0.0836664,-0.255037,-0.17137,0.19555,0.0506359,-0.246186
5.265,-0.085206,-0.257252,-0.172046,0.197718,0.0501372,-0.247856
5.27,-0.0845692,-0.258069,-0.1735,0.197822,0.0513443,-0.249167
5.275,-0.0813112,-0.259493,-0.178182,0.196763,0.0559282,-0.252692
5.28,-0.0774165,-0.263791,-0.186375,0.196996,0.062907,-0.259903
5.285,-0.0761745,-0.270804,-0.19463,0.200328,0.0683901,-0.268718
5.29,-0.0793364,-0.277583,-0.198247,0.206067,0.0686528,-0.27472
5.295,-0.0859106,-0.282255,-0.196345,0.212561,0.0637591,-0.27632
5.3,-0.0933934,-0.285307,-0.191914,0.218643,0.0568806,-0.275523
5.305,-0.0994278,-0.287403,-0.187975,0.223337,0.0511227,-0.274459
5.31,-0.102891,-0.289252,-0.186361,0.226403,0.0481915,-0.274595
5.315,-0.103871,-0.291219,-0.187348,0.228105,0.0481956,-0.276301
5.32,-0.103053,-0.293004,-0.189951,0.228663,0.0501705,-0.278834
5.325,-0.101395,-0.293682,-0.192287,0.228098,0.0524767,-0.280575
5.33,-0.099861,-0.293076,-0.193215,0.226862,0.0538979,-0.28076
5.335,-0.0989026,-0.29211,-0.193207,0.225751,0.0544466,-0.280198
5.34,-0.0987062,-0.290893,-0.192186,0.224935,0.0539707,-0.278906
5.345,-0.0992357,-0.288863,-0.189628,0.224069,0.0521878,-0.276257
5.35,-0.10023,-0.286834,-0.186604,0.223472,0.0498676,-0.273339
5.355,-0.101352,-0.285477,-0.184124,0.223336,0.0477884,-0.271124
5.36,-0.102166,-0.284501,-0.182336,0.223242,0.0462862,-0.269528
5.365,-0.102586,-0.284314,-0.181729,0.223377,0.0456932,-0.26907
5.37,-0.102589,-0.284894,-0.182306,0.223713,0.0460247,-0.269738
5.375,-0.101399,-0.285714,-0.184315,0.2235,0.0478712,-0.271371
5.38,-0.0981544,-0.285526,-0.187372,0.221518,0.0515096,-0.273027
5.385,-0.0941867,-0.282466,-0.18828,0.217461,0.0543246,-0.271785
5.39,-0.0921001,-0.275844,-0.183744,0.212432,0.0529104,-0.265343
5.395,-0.0928985,-0.265038,-0.17214,0.206655,0.0457501,-0.252405
5.4,-0.0952278,-0.250661,-0.155433,0.199699,0.0347597,-0.234459
5.405,-0.0972956,-0.235529,-0.138234,0.192156,0.0236355,-0.215792
5.41,-0.0988472,-0.221435,-0.122587,0.184915,0.0137064,-0.198621
5.415,-0.100238,-0.208253,-0.108015,0.178107,0.00449039,-0.182597
5.42,-0.100582,-0.194644,-0.0940623,0.170449,-0.00376411,-0.166685
5.425,-0.0986274,-0.179826,-0.0811988,0.160765,-0.0100624,-0.150703
5.43,-0.0951058,-0.164553,-0.0694473,0.149914,-0.0148139,-0.1351
5.435,-0.0921647,-0.150594,-0.0584292,0.140157,-0.0194772,-0.120679
5.44,-0.0909694,-0.138808,-0.0478391,0.132662,-0.0249013,-0.107761
5.445,-0.0909963,-0.129648,-0.0386514,0.127389,-0.0302214,-0.0971675
5.45,-0.0908733,-0.124012,-0.0331384,0.124064,-0.0333333,-0.0907306
5.455,-0.0892918,-0.124878,-0.0355859,0.123651,-0.0310071,-0.0926436
5.46,-0.0861554,-0.136637,-0.0504818,0.128629,-0.0205962,-0.108033
5.465,-0.0832549,-0.160308,-0.0770532,0.140621,-0.00358053,-0.137041
5.47,-0.082407,-0.191476,-0.109069,0.158127,0.0153935,-0.17352
5.475,-0.083519,-0.224538,-0.141019,0.177857,0.0331975,-0.211054
5.48,-0.0859451,-0.255307,-0.169362,0.197022,0.0481606,-0.245182
5.485,-0.0894837,-0.280601,-0.191117,0.213668,0.0586781,-0.272346
5.49,-0.093564,-0.298993,-0.205429,0.226643,0.0645853,-0.291228
5.495,-0.097259,-0.311777,-0.214518,0.236157,0.0676994,-0.303856
5.5,-0.0997928,-0.320336,-0.220543,0.242562,0.0697154,-0.312277
5.505,-0.101149,-0.325967,-0.224818,0.246596,0.0714,-0.317996
5.51,-0.101659,-0.330111,-0.228452,0.249282,0.0732037,-0.322486
5.515,-0.0997188,-0.332626,-0.232907,0.249614,0.0768961,-0.32651
5.52,-0.0905812,-0.329502,-0.238921,0.242535,0.0856438,-0.328179
5.525,-0.0688816,-0.313158,-0.244276,0.22057,0.101264,-0.321834
5.53,-0.0347188,-0.273341,-0.238623,0.177859,0.117724,-0.295582
5.535,0.00222928,-0.196352,-0.198582,0.112077,0.115938,-0.228015
5.54,0.0302511,-0.0694182,-0.0996693,0.0226131,0.0750096,-0.0976227
5.545,0.0422913,0.106121,0.0638301,-0.0856861,-0.0124354,0.0981216
5.55,0.031572,0.297615,0.266043,-0.190056,-0.135372,0.325428
5.555,-0.00981772,0.444278,0.454096,-0.250836,-0.26784,0.518676
5.56,-0.0825332,0.491335,0.573868,-0.236022,-0.378973,0.614995
5.565,-0.172491,0.427907,0.600397,-0.147465,-0.446227,0.593691
5.57,-0.253177,0.295303,0.54848,-0.0243217,-0.462837,0.487159
5.575,-0.300538,0.150452,0.45099,0.0866518,-0.433894,0.347242
5.58,-0.305574,0.0270078,0.332582,0.16083,-0.368439,0.207609
5.585,-0.275678,-0.0683256,0.207353,0.198611,-0.278878,0.0802672
5.59,-0.227682,-0.140909,0.0867732,0.212806,-0.181551,-0.0312554
5.595,-0.178427,-0.197331,-0.0189033,0.216944,-0.0921013,-0.124843
5.6,-0.13786,-0.241476,-0.103616,0.21901,-0.019771,-0.199239
5.605,-0.108777,-0.274859,-0.166081,0.221492,0.0330843,-0.254577
5.61,-0.0904061,-0.298726,-0.20832,0.224665,0.0680775,-0.292743
5.615,-0.0806423,-0.315102,-0.23446,0.228483,0.0888067,-0.31729
5.62,-0.0766711,-0.326122,-0.24945,0.232552,0.0997541,-0.332306
5.625,-0.0759649,-0.333367,-0.257402,0.236328,0.104753,-0.341081
5.63,-0.0761542,-0.3377,-0.261546,0.238939,0.107036,-0.345974
5.635,-0.0749222,-0.339735,-0.264813,0.239402,0.109633,-0.349035
5.64,-0.0713214,-0.339995,-0.268673,0.237473,0.113941,-0.351414
5.645,-0.0657964,-0.338744,-0.272948,0.233562,0.119599,-0.353161
5.65,-0.0595037,-0.336363,-0.276859,0.228554,0.12549,-0.354044
5.655,-0.0542579,-0.332846,-0.278588,0.223494,0.129517,-0.353011
5.66,-0.0506851,-0.329056,-0.278371,0.219244,0.131455,-0.350698
5.665,-0.0474296,-0.325709,-0.27828,0.215432,0.133281,-0.348713
5.67,-0.0435509,-0.322386,-0.278835,0.211274,0.135841,-0.347115
5.675,-0.0398607,-0.318906,-0.279045,0.207134,0.138093,-0.345227
5.68,-0.0364735,-0.315397,-0.278923,0.203152,0.139978,-0.343131
5.685,-0.0324986,-0.311681,-0.279182,0.198712,0.142423,-0.341135
5.69,-0.0272341,-0.307678,-0.280444,0.193362,0.146191,-0.339552
5.695,-0.0210862,-0.303956,-0.28287,0.187663,0.151141,-0.338804
5.7,-0.0152089,-0.300721,-0.285513,0.182402,0.15606,-0.338462
5.705,-0.0101833,-0.29757,-0.287386,0.177681,0.160043,-0.337724
5.71,-0.00589845,-0.293888,-0.287989,0.173081,0.162865,-0.335947
5.715,-0.00182013,-0.288991,-0.287171,0.1679,0.164747,-0.332647
5.72,0.00285643,-0.282129,-0.284986,0.161238,0.166186,-0.327424
5.725,0.00919033,-0.274456,-0.283646,0.153151,0.169069,-0.32222
5.73,0.0175768,-0.267447,-0.285024,0.144263,0.174706,-0.318969
5.735,0.0276826,-0.261469,-0.289151,0.134976,0.182924,-0.3179
5.74,0.0384762,-0.256547,-0.295023,0.125903,0.192546,-0.318449
5.745,0.0486603,-0.252195,-0.300856,0.117511,0.201793,-0.319304
5.75,0.0573699,-0.247437,-0.304807,0.109735,0.209103,-0.318838
5.755,0.0644889,-0.241838,-0.306326,0.102392,0.21409,-0.316483
5.76,0.0703761,-0.235893,-0.306269,0.0955613,0.217456,-0.313017
5.765,0.0754647,-0.23159,-0.307055,0.0901388,0.220847,-0.310986
5.77,0.0796986,-0.230085,-0.309784,0.0868255,0.224868,-0.311693
5.775,0.0829605,-0.231056,-0.314016,0.0855028,0.229195,-0.314697
5.78,0.0849443,-0.233818,-0.318762,0.085952,0.23308,-0.319032
5.785,0.0853589,-0.236799,-0.322158,0.0874339,0.23528,-0.322714
5.79,0.0841179,-0.238902,-0.32302,0.0893646,0.235061,-0.324426
5.795,0.0813415,-0.239604,-0.320945,0.0913728,0.23226,-0.323633
5.8,0.0762693,-0.238604,-0.314874,0.0937241,0.225826,-0.31955
5.805,0.0670601,-0.236415,-0.303475,0.0977767,0.213928,-0.311705
5.81,0.0531803,-0.233523,-0.286704,0.104121,0.196232,-0.300353
5.815,0.0356546,-0.230194,-0.265849,0.112318,0.174073,-0.286391
5.82,0.0166476,-0.227013,-0.243661,0.121455,0.150289,-0.271744
5.825,-0.00172906,-0.225593,-0.223864,0.131244,0.12825,-0.259494
5.83,-0.0180396,-0.227233,-0.209193,0.141608,0.110363,-0.251971
5.835,-0.0312823,-0.231078,-0.199795,0.151474,0.0972911,-0.248765
5.84,-0.0420921,-0.235886,-0.193794,0.160491,0.0875852,-0.248076
5.845,-0.0521431,-0.2412,-0.189057,0.169362,0.0790473,-0.248409
5.85,-0.061652,-0.24656,-0.184908,0.177946,0.0711618,-0.249108
5.855,-0.0694657,-0.25128,-0.181814,0.185183,0.0648646,-0.250047
5.86,-0.0747856,-0.25446,-0.179674,0.19009,0.0605575,-0.250647
5.865,-0.0779495,-0.255323,-0.177374,0.192415,0.0574026,-0.249818
5.87,-0.0796368,-0.25369,-0.174053,0.192446,0.0545115,-0.246958
5.875,-0.0805098,-0.251473,-0.170963,0.19167,0.052223,-0.243893
5.88,-0.0807946,-0.250062,-0.169268,0.19102,0.05108,-0.2421
5.885,-0.0801996,-0.248467,-0.168267,0.189755,0.0508459,-0.240601
5.89,-0.0785471,-0.246197,-0.16765,0.187491,0.0514438,-0.238935
5.895,-0.0769245,-0.244229,-0.167304,0.185418,0.0521808,-0.237599
5.9,-0.0767205,-0.243134,-0.166413,0.184668,0.0517841,-0.236452
5.905,-0.0775521,-0.240648,-0.163096,0.183713,0.0493887,-0.233101
5.91,-0.0782923,-0.235552,-0.15726,0.181198,0.0455919,-0.22679
5.915,-0.0787905,-0.229051,-0.150261,0.177733,0.0412634,-0.218996
5.92,-0.0790459,-0.222551,-0.143505,0.174127,0.0372157,-0.211343
5.925,-0.078344,-0.217488,-0.139144,0.170798,0.0351028,-0.205901
5.93,-0.0758572,-0.214034,-0.138176,0.167368,0.03598,-0.203348
5.935,-0.0725913,-0.211739,-0.139148,0.164158,0.0384264,-0.202585
5.94,-0.0708291,-0.209812,-0.138983,0.162028,0.0393486,-0.201377
5.945,-0.0716083,-0.207359,-0.135751,0.161062,0.0370325,-0.198094
5.95,-0.0736888,-0.20403,-0.130342,0.160341,0.0327086,-0.19305
5.955,-0.0753986,-0.200441,-0.125043,0.159256,0.0286621,-0.187918
5.96,-0.0765401,-0.197749,-0.121208,0.158361,0.0257892,-0.18415
5.965,-0.0771104,-0.196564,-0.119454,0.158006,0.024447,-0.182453
5.97,-0.0763279,-0.196025,-0.119697,0.157243,0.0250394,-0.182282
5.975,-0.075002,-0.195445,-0.120443,0.156143,0.0262355,-0.182378
5.98,-0.0746512,-0.19489,-0.120239,0.15562,0.0263202,-0.18194
5.985,-0.0756451,-0.194811,-0.119166,0.156148,0.0251267,-0.181274
5.99,-0.0777329,-0.195683,-0.11795,0.157857,0.0232194,-0.181076
5.995,-0.0802538,-0.197714,-0.11746,0.160485,0.0214809,-0.181965
6,-0.0821958,-0.200448,-0.118252,0.163184,0.020817,-0.184001
6.005,-0.0828582,-0.203694,-0.120836,0.165441,0.0219264,-0.187367
6.01,-0.0816339,-0.206838,-0.125204,0.166549,0.025155,-0.191704
6.015,-0.0793114,-0.208765,-0.129454,0.166321,0.0289499,-0.195271
6.02,-0.0782175,-0.20972,-0.131503,0.166241,0.0307641,-0.197005
6.025,-0.0793154,-0.210101,-0.130786,0.167095,0.0297165,-0.196811
6.03,-0.081382,-0.209591,-0.128209,0.167993,0.0270359,-0.195029
6.035,-0.0834967,-0.207996,-0.124499,0.168293,0.0236729,-0.191966
6.04,-0.0860217,-0.20483,-0.118808,0.167923,0.0189294,-0.186853
6.045,-0.089097,-0.20068,-0.111583,0.167303,0.0129823,-0.180285
6.05,-0.0915506,-0.197429,-0.105878,0.166842,0.00827189,-0.175114
6.055,-0.0923733,-0.196544,-0.10417,0.166806,0.00681094,-0.173617
6.06,-0.0925803,-0.197923,-0.105343,0.167722,0.00736846,-0.175091
6.065,-0.0933331,-0.199412,-0.106079,0.169016,0.00735872,-0.176375
6.07,-0.0948992,-0.19943,-0.104531,0.169931,0.00556093,-0.175492
6.075,-0.0965861,-0.198752,-0.102166,0.170514,0.00322173,-0.173735
6.08,-0.097339,-0.198116,-0.100777,0.170581,0.00198519,-0.172566
6.085,-0.0970881,-0.196882,-0.0997942,0.169724,0.00156235,-0.171286
6.09,-0.0965654,-0.19504,-0.0984746,0.168358,0.00110232,-0.169461
6.095,-0.0962451,-0.193616,-0.0973709,0.167351,0.000650022,-0.168001
6.1,-0.0961542,-0.192359,-0.0962047,0.166573,2.92E-05,-0.166602
6.105,-0.0961458,-0.190826,-0.0946806,0.165683,-0.000845968,-0.164837
6.11,-0.0958955,-0.189033,-0.0931374,0.164503,-0.00159235,-0.162911
6.115,-0.0948016,-0.187699,-0.0928973,0.163102,-0.0010995,-0.162002
6.12,-0.092554,-0.186695,-0.0941406,0.161224,0.000916007,-0.16214
6.125,-0.0902549,-0.185261,-0.0950064,0.159069,0.0027433,-0.161813
6.13,-0.0893785,-0.183598,-0.094219,0.157603,0.00279466,-0.160397
6.135,-0.089584,-0.180975,-0.0913913,0.156207,0.00104345,-0.157251
6.14,-0.0899838,-0.174779,-0.0847957,0.152861,-0.0029953,-0.149866
6.145,-0.0908538,-0.163251,-0.0723973,0.146708,-0.0106559,-0.136052
6.15,-0.0926224,-0.147103,-0.0544803,0.138405,-0.0220213,-0.116384
6.155,-0.094555,-0.128417,-0.033862,0.128733,-0.0350411,-0.0936918
6.16,-0.0960536,-0.109139,-0.0130852,0.118468,-0.0479018,-0.070566
6.165,-0.0973624,-0.0911895,0.00617288,0.10886,-0.0597761,-0.0490843
6.17,-0.0978357,-0.0754612,0.0223745,0.100053,-0.0694033,-0.0306496
6.175,-0.0967821,-0.0614668,0.0353152,0.091365,-0.0762664,-0.0150986
6.18,-0.0944229,-0.0478772,0.0465456,0.0821569,-0.0813882,-0.000768794
6.185,-0.0917136,-0.0336143,0.0580993,0.0723581,-0.0864945,0.0141364
6.19,-0.0898744,-0.0189001,0.0709742,0.062801,-0.092866,0.030065
6.195,-0.0891229,-0.00522891,0.083894,0.054474,-0.0998913,0.0454173
6.2,-0.0883253,0.00575762,0.0940829,0.0476704,-0.105313,0.0576429
6.205,-0.0862373,0.0116679,0.0979052,0.0430527,-0.106315,0.063262
6.21,-0.0829491,0.00917067,0.0921198,0.042596,-0.101076,0.0584801
6.215,-0.0790079,-0.00550427,0.0735037,0.0487931,-0.0880526,0.0392595
6.22,-0.0754897,-0.0316459,0.0438438,0.0618547,-0.0688972,0.00704243
6.225,-0.0746104,-0.0638327,0.0107777,0.0799301,-0.0492988,-0.0306313
6.23,-0.0777129,-0.0950267,-0.0173138,0.0997312,-0.0348714,-0.0648598
6.235,-0.0837545,-0.120248,-0.0364936,0.117781,-0.0272861,-0.0904948
6.24,-0.090877,-0.138643,-0.0477664,0.132514,-0.0248899,-0.107624
6.245,-0.0967492,-0.151604,-0.0548548,0.143387,-0.0241877,-0.119199
6.25,-0.0996322,-0.160092,-0.0604595,0.149952,-0.0226163,-0.127335
6.255,-0.100444,-0.164874,-0.0644306,0.153182,-0.0207923,-0.132389
6.26,-0.100909,-0.166744,-0.0658355,0.154529,-0.0202495,-0.13428
6.265,-0.10102,-0.16736,-0.0663407,0.154949,-0.0200218,-0.134927
6.27,-0.0977542,-0.166326,-0.0685721,0.152467,-0.0168483,-0.135619
6.275,-0.0862498,-0.158531,-0.0722814,0.141324,-0.00806463,-0.13326
6.28,-0.0614303,-0.134777,-0.0733467,0.11328,0.00687998,-0.12016
6.285,-0.0248469,-0.0825679,-0.057721,0.0620159,0.0189799,-0.0809958
6.29,0.0129871,0.0120556,-0.000931479,-0.0144584,0.00803587,0.0064225
6.295,0.0411075,0.1586,0.117492,-0.115301,-0.0441007,0.159402
6.3,0.0515662,0.348291,0.296724,-0.230857,-0.141542,0.372399
6.305,0.034914,0.539883,0.504969,-0.331859,-0.271386,0.603245
6.31,-0.0161905,0.670498,0.686688,-0.377764,-0.405807,0.783571
6.315,-0.09843,0.693366,0.791796,-0.343487,-0.513972,0.857459
6.32,-0.192961,0.611904,0.804866,-0.241877,-0.576096,0.817972
6.325,-0.270916,0.474018,0.744934,-0.117261,-0.586501,0.703762
6.33,-0.310051,0.3318,0.641852,-0.0125569,-0.549581,0.562138
6.335,-0.306325,0.211268,0.517593,0.0548812,-0.47569,0.420808
6.34,-0.271451,0.116311,0.387762,0.0895703,-0.380596,0.291026
6.345,-0.222867,0.0429871,0.265854,0.103854,-0.282164,0.17831
6.35,-0.17552,-0.013433,0.162087,0.109092,-0.194918,0.0858255
6.355,-0.138486,-0.056111,0.0823752,0.112351,-0.127514,0.0151636
6.36,-0.113878,-0.0869371,0.0269406,0.11594,-0.0813014,-0.034639
6.365,-0.0991271,-0.108068,-0.00894105,0.119624,-0.0520689,-0.0675553
6.37,-0.0907215,-0.121979,-0.031257,0.122802,-0.0343318,-0.0884705
6.375,-0.0862702,-0.130357,-0.0440867,0.12507,-0.0243546,-0.100715
6.38,-0.0840416,-0.134632,-0.0505906,0.126251,-0.0193129,-0.106938
6.385,-0.0823863,-0.135794,-0.0534073,0.125966,-0.016731,-0.109235
6.39,-0.0798063,-0.135054,-0.0552473,0.124049,-0.0141791,-0.10987
6.395,-0.0759373,-0.133571,-0.0576341,0.12096,-0.0105674,-0.110392
6.4,-0.0718781,-0.131263,-0.0593845,0.117283,-0.00721318,-0.11007
6.405,-0.0683803,-0.127796,-0.0594161,0.113263,-0.00517551,-0.108087
6.41,-0.0654323,-0.124283,-0.0588511,0.109532,-0.00379965,-0.105733
6.415,-0.0627204,-0.121335,-0.0586148,0.106265,-0.00237039,-0.103894
6.42,-0.059603,-0.117732,-0.0581294,0.102385,-0.000850782,-0.101534
6.425,-0.0557115,-0.112093,-0.0563819,0.0968822,0.000387027,-0.0972692
6.43,-0.0516539,-0.105014,-0.0533598,0.0904521,0.000984901,-0.091437
6.435,-0.0484733,-0.0978933,-0.04942,0.0845047,0.000546586,-0.0850513
6.44,-0.0460454,-0.0915167,-0.0454713,0.0794215,-0.000331442,-0.0790901
6.445,-0.0428321,-0.0861739,-0.0433418,0.0744816,0.000294238,-0.0747759
6.45,-0.0378394,-0.0810058,-0.0431664,0.0686152,0.00307554,-0.0716908
6.455,-0.0312273,-0.0751469,-0.0439196,0.0614151,0.00732792,-0.0687431
6.46,-0.0240022,-0.0696185,-0.0456163,0.0540519,0.0124789,-0.0665308
6.465,-0.0170524,-0.0650603,-0.0480079,0.0474078,0.0178722,-0.0652799
6.47,-0.0104319,-0.0599887,-0.0495568,0.0406573,0.0225888,-0.0632461
6.475,-0.00388167,-0.0530835,-0.0492018,0.0328888,0.0261656,-0.0590544
6.48,0.00276231,-0.0461843,-0.0489466,0.0250697,0.0298542,-0.0549239
6.485,0.0100289,-0.0413628,-0.0513917,0.0180906,0.0354611,-0.0535518
6.49,0.0182121,-0.0395105,-0.0577226,0.0122966,0.0438409,-0.0561375
6.495,0.0267629,-0.0410409,-0.0678038,0.00824342,0.0545981,-0.0628415
6.5,0.035178,-0.0444865,-0.0796645,0.00537426,0.0663043,-0.0716786
6.505,0.0432978,-0.0489804,-0.0922782,0.00328089,0.0782748,-0.0815557
6.51,0.0509029,-0.0546361,-0.105539,0.00215537,0.0903217,-0.092477
6.515,0.057677,-0.061238,-0.118915,0.00205595,0.101955,-0.104011
6.52,0.0636954,-0.0675798,-0.131275,0.00224265,0.112566,-0.114809
6.525,0.0686563,-0.0734937,-0.14215,0.00279285,0.121709,-0.124502
6.53,0.0716491,-0.079906,-0.151555,0.00476716,0.128867,-0.133634
6.535,0.0723969,-0.086188,-0.158585,0.00796228,0.133357,-0.14132
6.54,0.0706235,-0.0908755,-0.161499,0.0116925,0.134016,-0.145708
6.545,0.066031,-0.0932445,-0.159275,0.0157117,0.130081,-0.145792
6.55,0.0588551,-0.0935404,-0.152395,0.0200255,0.121965,-0.141991
6.555,0.049842,-0.0929992,-0.142841,0.0249168,0.111246,-0.136162
6.56,0.0397046,-0.0923419,-0.132047,0.0303902,0.0991605,-0.129551
6.565,0.028333,-0.0918135,-0.120147,0.0366504,0.0857247,-0.122375
6.57,0.0147597,-0.0913008,-0.106061,0.044191,0.0697556,-0.113947
6.575,-0.00101901,-0.0908436,-0.0898246,0.0530369,0.0512719,-0.104309
6.58,-0.0177604,-0.0912764,-0.073516,0.0629524,0.0321905,-0.0951429
6.585,-0.0334382,-0.0934351,-0.0599969,0.0732503,0.0153337,-0.088584
6.59,-0.0471155,-0.097174,-0.0500586,0.0833055,0.00169919,-0.0850047
6.595,-0.0588816,-0.102127,-0.0432455,0.0929584,-0.00902749,-0.0839309
6.6,-0.0688506,-0.1089,-0.0400492,0.102624,-0.0166285,-0.0859957
6.605,-0.0776581,-0.116622,-0.0389635,0.112167,-0.0223403,-0.089827
6.61,-0.0857152,-0.122909,-0.0371936,0.120449,-0.0280139,-0.092435
6.615,-0.0928571,-0.126241,-0.0333837,0.126496,-0.034337,-0.0921591
6.62,-0.097556,-0.126349,-0.028793,0.129272,-0.0397003,-0.0895712
6.625,-0.0981885,-0.124581,-0.0263926,0.128616,-0.0414513,-0.0871647
6.63,-0.0964594,-0.122647,-0.0261874,0.126501,-0.0405715,-0.0859295
6.635,-0.09542,-0.120762,-0.0253418,0.124813,-0.0404597,-0.0843529
6.64,-0.0956448,-0.118315,-0.0226702,0.12353,-0.0421319,-0.0813978
6.645,-0.0964302,-0.114591,-0.0181609,0.121833,-0.0451888,-0.0766444
6.65,-0.0981729,-0.109035,-0.0108624,0.119632,-0.0504087,-0.0692229
6.655,-0.101134,-0.102358,-0.00122403,0.117487,-0.0576833,-0.0598033
6.66,-0.104306,-0.0958865,0.00841928,0.115581,-0.0650818,-0.0504992
6.665,-0.106091,-0.0901743,0.0159166,0.113314,-0.070441,-0.0428727
6.67,-0.105455,-0.0846493,0.0208062,0.109757,-0.0728971,-0.0368598
6.675,-0.102068,-0.0789295,0.0231386,0.104499,-0.0722881,-0.0322108
6.68,-0.0967539,-0.0736985,0.0230555,0.0984107,-0.0691719,-0.0292387
6.685,-0.0915203,-0.0695041,0.0220162,0.0929674,-0.0655503,-0.0274171
6.69,-0.0880287,-0.0662984,0.0217303,0.0891008,-0.0633693,-0.0257314
6.695,-0.0870032,-0.0648545,0.0221487,0.087675,-0.0630189,-0.0246561
6.7,-0.0876842,-0.0644798,0.0232044,0.0878519,-0.0640215,-0.0238303
6.705,-0.0881387,-0.0647085,0.0234302,0.0882464,-0.0644143,-0.023832
6.71,-0.086612,-0.0656268,0.0209852,0.087895,-0.0621212,-0.0257738
6.715,-0.0833004,-0.0667479,0.0165525,0.0866304,-0.0576501,-0.0289803
6.72,-0.0805273,-0.0673025,0.0132248,0.0853496,-0.0541278,-0.0312218
6.725,-0.0798291,-0.0667198,0.0131093,0.08461,-0.053658,-0.030952
6.73,-0.0808609,-0.0659329,0.014928,0.0847514,-0.0553037,-0.0294477
6.735,-0.0831166,-0.0662097,0.0169069,0.0862136,-0.0577486,-0.028465
6.74,-0.0867532,-0.0672421,0.019511,0.0889092,-0.0613516,-0.0275575
6.745,-0.0912275,-0.067619,0.0236085,0.0917101,-0.0663006,-0.0254095
6.75,-0.0956386,-0.0666158,0.0290228,0.0936776,-0.0719733,-0.0217043
6.755,-0.0997245,-0.0652061,0.0345184,0.0952227,-0.0775051,-0.0177175
6.76,-0.102805,-0.0636943,0.0391107,0.0961284,-0.081935,-0.0141933
6.765,-0.104233,-0.062084,0.042149,0.0960231,-0.0845137,-0.0115094
6.77,-0.103872,-0.0612751,0.0425974,0.0953479,-0.0845644,-0.0107836
6.775,-0.102302,-0.0621645,0.0401375,0.0949547,-0.0822375,-0.0127173
6.78,-0.10042,-0.0645318,0.0358884,0.095235,-0.0786978,-0.0165372
6.785,-0.0991755,-0.0675537,0.0316218,0.0962611,-0.0755158,-0.0207453
6.79,-0.0995983,-0.0702892,0.0293091,0.0980846,-0.0744247,-0.0236599
6.795,-0.101676,-0.0725682,0.0291082,0.1006,-0.0755085,-0.0250916
6.8,-0.10455,-0.0744006,0.0301498,0.103317,-0.0777691,-0.0255482
6.805,-0.107212,-0.0754327,0.031779,0.10545,-0.0802463,-0.0252035
6.81,-0.108677,-0.0755531,0.0331235,0.106365,-0.0818682,-0.0244967
6.815,-0.10891,-0.0751696,0.03374,0.106278,-0.0823587,-0.0239194
6.82,-0.108378,-0.0746118,0.033766,0.105649,-0.0820667,-0.0235823
6.825,-0.107491,-0.0739839,0.0335074,0.104775,-0.0814057,-0.0233691
6.83,-0.106531,-0.0738955,0.0326352,0.104169,-0.0803474,-0.0238217
6.835,-0.105776,-0.0736932,0.0320829,0.103617,-0.0795929,-0.0240237
6.84,-0.105522,-0.07263,0.0328917,0.102856,-0.0799129,-0.0229429
6.845,-0.106069,-0.0716258,0.0344432,0.102592,-0.0811247,-0.0214674
6.85,-0.107594,-0.0715768,0.0360175,0.103444,-0.0829143,-0.0205301
6.855,-0.110468,-0.0714903,0.0389773,0.105053,-0.086282,-0.0187713
6.86,-0.113883,-0.0676288,0.0462541,0.104796,-0.0924551,-0.0123407
6.865,-0.115955,-0.0582452,0.0577095,0.100574,-0.100265,-0.000309293
6.87,-0.115498,-0.0452782,0.0702193,0.0928239,-0.107224,0.0143997
6.875,-0.112789,-0.0307208,0.0820684,0.0828555,-0.112501,0.0296456
6.88,-0.109855,-0.0157189,0.094136,0.0725,-0.117774,0.0452741
6.885,-0.108837,-0.00179266,0.107044,0.0638719,-0.124639,0.060767
6.89,-0.109668,0.00980208,0.11947,0.0576577,-0.132293,0.0746354
6.895,-0.110315,0.020805,0.13112,0.0516786,-0.139393,0.087714
6.9,-0.109059,0.033756,0.142815,0.0434761,-0.145419,0.101943
6.905,-0.106049,0.0487646,0.154813,0.0330729,-0.150609,0.117536
6.91,-0.10212,0.0632991,0.165419,0.0224132,-0.154464,0.13205
6.915,-0.0985045,0.0751718,0.173676,0.0134712,-0.157144,0.143672
6.92,-0.0954094,0.0861676,0.181577,0.0053358,-0.159918,0.154582
6.925,-0.0921335,0.0969548,0.189088,-0.00278355,-0.162363,0.165147
6.93,-0.0884597,0.102735,0.191194,-0.0082417,-0.161458,0.1697
6.935,-0.085745,0.0970958,0.182841,-0.00655339,-0.155068,0.161621
6.94,-0.0851047,0.0784254,0.16353,0.00385628,-0.143549,0.139693
6.945,-0.0865017,0.050693,0.137195,0.0206742,-0.129151,0.108477
6.95,-0.0899681,0.0196249,0.109593,0.0406126,-0.115217,0.0746039
6.955,-0.0952523,-0.00938369,0.0858686,0.0604116,-0.10457,0.0441586
6.96,-0.100576,-0.0323962,0.0681798,0.0767715,-0.0974311,0.0206596
6.965,-0.104165,-0.0482714,0.0558937,0.0880092,-0.0924099,0.0044007
6.97,-0.106611,-0.057913,0.0486977,0.0949877,-0.0896673,-0.00532045
6.975,-0.108967,-0.0632673,0.0457001,0.0994396,-0.0892972,-0.0101424
6.98,-0.111453,-0.0667996,0.0446534,0.102914,-0.0901281,-0.0127861
6.985,-0.113137,-0.0703001,0.0428372,0.105908,-0.0900519,-0.0158557
6.99,-0.111691,-0.0738355,0.0378551,0.107113,-0.0863401,-0.0207733
6.995,-0.103246,-0.0740419,0.0292039,0.102357,-0.0764698,-0.0258872
7,-0.0822948,-0.0635816,0.0187132,0.0842217,-0.0583169,-0.0259047
7.005,-0.0436383,-0.030349,0.0132893,0.0427166,-0.0328671,-0.00984946
7.01,0.00805246,0.0409896,0.0329371,-0.0283144,-0.0143672,0.0426816
7.015,0.0563776,0.16505,0.108673,-0.127842,-0.0301927,0.158034
7.02,0.0848,0.347159,0.262359,-0.249392,-0.102514,0.351906
7.025,0.0804691,0.563869,0.4834,-0.372009,-0.232632,0.604641
7.03,0.0347605,0.754659,0.719898,-0.455771,-0.395564,0.851335
7.035,-0.0490939,0.848773,0.897866,-0.461695,-0.546728,1.00842
7.04,-0.151724,0.813147,0.964872,-0.381873,-0.644667,1.02654
7.045,-0.244398,0.676072,0.920471,-0.249227,-0.672537,0.921764
7.05,-0.303222,0.500319,0.803541,-0.113794,-0.638989,0.752783
7.055,-0.318329,0.339486,0.657815,-0.0122152,-0.563577,0.575792
7.06,-0.296123,0.215836,0.511959,0.0463539,-0.466546,0.420192
7.065,-0.252384,0.128838,0.381223,0.0713295,-0.365813,0.294484
7.07,-0.202997,0.0699652,0.272962,0.0768058,-0.274795,0.197989
7.075,-0.159009,0.0292251,0.188234,0.0749306,-0.20048,0.12555
7.08,-0.125494,-0.00126764,0.124226,0.0731856,-0.144176,0.07099
7.085,-0.102709,-0.0246649,0.078044,0.0735393,-0.104358,0.0308184
7.09,-0.0884545,-0.041782,0.0466725,0.0751921,-0.0780156,0.0028235
7.095,-0.0799764,-0.0535809,0.0263955,0.0771093,-0.0614138,-0.0156955
7.1,-0.0747899,-0.0608814,0.0139085,0.0783298,-0.05121,-0.0271198
7.105,-0.0716419,-0.0646998,0.00694217,0.0787169,-0.0453705,-0.0333463
7.11,-0.0696025,-0.0660069,0.00359556,0.0782941,-0.0422609,-0.0360332
7.115,-0.0675179,-0.065718,0.00179987,0.0769237,-0.0400206,-0.0369031
7.12,-0.0650295,-0.0644212,0.00060828,0.0747383,-0.037896,-0.0368424
7.125,-0.0620061,-0.0625185,-0.000512354,0.0718943,-0.0355034,-0.0363909
7.13,-0.0581731,-0.0593446,-0.0011715,0.0678488,-0.0329099,-0.034939
7.135,-0.0532664,-0.0543208,-0.00105434,0.0621155,-0.0301446,-0.0319708
7.14,-0.0473862,-0.0480163,-0.000630122,0.0550806,-0.0269946,-0.028086
7.145,-0.0419789,-0.0418199,0.000159077,0.0483812,-0.0243284,-0.0240529
7.15,-0.0381891,-0.036377,0.00181213,0.0430507,-0.0230947,-0.019956
7.155,-0.0352303,-0.0310546,0.00417572,0.0382696,-0.0227511,-0.0155185
7.16,-0.0331687,-0.025421,0.00774763,0.0338268,-0.023623,-0.0102037
7.165,-0.0327878,-0.0197859,0.0130019,0.0303534,-0.0264367,-0.00391678
7.17,-0.0336088,-0.0146587,0.0189501,0.0278672,-0.0303449,0.00247767
7.175,-0.0335501,-0.0100461,0.023504,0.0251703,-0.0329402,0.00776994
7.18,-0.0304593,-0.00482371,0.0256356,0.0203706,-0.0323864,0.0120157
7.185,-0.0240702,0.00182061,0.0258908,0.0128458,-0.028845,0.0159992
7.19,-0.0156046,0.00953437,0.025139,0.00350466,-0.0235233,0.0200187
7.195,-0.00648619,0.0174704,0.0239566,-0.00634176,-0.0175762,0.0239179
7.2,0.00239662,0.0247739,0.0223772,-0.0156869,-0.0115358,0.0272227
7.205,0.0113266,0.0314328,0.0201061,-0.0246871,-0.00506886,0.029756
7.21,0.021069,0.0368155,0.0157465,-0.0334196,0.00307296,0.0303467
7.215,0.0317801,0.040093,0.00831287,-0.0414959,0.0135488,0.0279471
7.22,0.0434823,0.0422048,-0.00127748,-0.0494714,0.025842,0.0236294
7.225,0.0558969,0.0445126,-0.0113843,-0.0579715,0.0388448,0.0191266
7.23,0.0673213,0.0473846,-0.0199367,-0.0662255,0.0503784,0.015847
7.235,0.0754392,0.0500663,-0.0253729,-0.0724606,0.0582038,0.0142568
7.24,0.0799352,0.0520675,-0.0278677,-0.0762118,0.06224,0.0139717
7.245,0.0829912,0.0535129,-0.0294783,-0.0788106,0.0649343,0.0138764
7.25,0.0860242,0.0552695,-0.0307547,-0.081576,0.0674223,0.0141536
7.255,0.0874955,0.0573422,-0.0301533,-0.0836221,0.0679245,0.0156975
7.26,0.0853844,0.0591021,-0.0262823,-0.0834193,0.0644708,0.0189486
7.265,0.0795362,0.0605506,-0.0189856,-0.0808791,0.0568816,0.0239975
7.27,0.071177,0.0623662,-0.00881083,-0.0771012,0.046181,0.0309202
7.275,0.0617232,0.0656511,0.00392794,-0.0735396,0.0333681,0.0401715
7.28,0.0512294,0.0700782,0.0188488,-0.0700369,0.0186949,0.051342
7.285,0.0390683,0.0742064,0.035138,-0.0653992,0.00226917,0.06313
7.29,0.0254044,0.0763561,0.0509517,-0.0587514,-0.0147497,0.0735011
7.295,0.0110542,0.0757616,0.0647074,-0.0501231,-0.0309767,0.0810998
7.3,-0.00327115,0.0734996,0.0767708,-0.0405464,-0.0462122,0.0867586
7.305,-0.0169746,0.0705977,0.0875723,-0.0309593,-0.0603601,0.0913194
7.31,-0.0293137,0.0669435,0.0962572,-0.0217255,-0.0724984,0.0942239
7.315,-0.0398021,0.0622012,0.102003,-0.0129321,-0.0818713,0.0948034
7.32,-0.0484561,0.0574835,0.10594,-0.00521194,-0.0891404,0.0943523
7.325,-0.0556354,0.0538478,0.109483,0.00103208,-0.0953313,0.0942992
7.33,-0.0614381,0.0514641,0.112902,0.0057585,-0.100655,0.0948969
7.335,-0.0658937,0.0502857,0.116179,0.00901125,-0.10512,0.0961086
7.34,-0.0692735,0.0500899,0.119363,0.0110756,-0.108909,0.0978338
7.345,-0.0710437,0.0506287,0.121672,0.0117866,-0.111265,0.0994781
7.35,-0.0718101,0.051921,0.123731,0.011483,-0.112896,0.101413
7.355,-0.0739427,0.0532943,0.127237,0.0119214,-0.116151,0.10423
7.36,-0.0781294,0.0541442,0.132274,0.0138479,-0.121476,0.107628
7.365,-0.0827819,0.0553207,0.138103,0.0158547,-0.127528,0.111673
7.37,-0.086387,0.0577561,0.144143,0.01653,-0.133097,0.116567
7.375,-0.0882902,0.0614036,0.149694,0.015523,-0.1374,0.121877
7.38,-0.0886102,0.0652759,0.153886,0.013472,-0.140005,0.126533
7.385,-0.0875795,0.0687565,0.156336,0.0108674,-0.140825,0.129957
7.39,-0.0854855,0.0720609,0.157546,0.00775067,-0.140314,0.132564
7.395,-0.0828403,0.0755731,0.158413,0.00419571,-0.139288,0.135092
7.4,-0.0800064,0.0789806,0.158987,0.000592273,-0.137983,0.137391
7.405,-0.0769689,0.0815974,0.158566,-0.00267227,-0.135986,0.138659
7.41,-0.0737932,0.0831873,0.156981,-0.00542369,-0.133237,0.138661
7.415,-0.0706853,0.0845722,0.155257,-0.00801761,-0.130448,0.138466
7.42,-0.0678992,0.0857528,0.153652,-0.0103078,-0.127913,0.13822
7.425,-0.0659616,0.0863465,0.152308,-0.0117693,-0.126018,0.137787
7.43,-0.0651812,0.0870133,0.152195,-0.0126048,-0.125502,0.138107
7.435,-0.064839,0.0884726,0.153312,-0.0136449,-0.125949,0.139594
7.44,-0.0636749,0.0896254,0.1533,-0.0149825,-0.125271,0.140253
7.445,-0.0611751,0.0893263,0.150501,-0.0162531,-0.122211,0.138465
7.45,-0.0590407,0.0884598,0.1475,-0.0169852,-0.119247,0.136232
7.455,-0.0598921,0.0881699,0.148062,-0.0163262,-0.120062,0.136389
7.46,-0.0632801,0.0886285,0.151909,-0.0146349,-0.124239,0.138874
7.465,-0.0666002,0.0885371,0.155137,-0.0126653,-0.12802,0.140685
7.47,-0.0685921,0.0866997,0.155292,-0.0104544,-0.129259,0.139714
7.475,-0.0699074,0.083746,0.153653,-0.00798971,-0.129073,0.137063
7.48,-0.0711649,0.0817778,0.152943,-0.0061274,-0.129389,0.135516
7.485,-0.0721771,0.08173,0.153907,-0.00551532,-0.13053,0.136045
7.49,-0.0727454,0.0824613,0.155207,-0.00560947,-0.131608,0.137218
7.495,-0.0729601,0.0827193,0.155679,-0.0056345,-0.132005,0.13764
7.5,-0.072694,0.0825005,0.155195,-0.00566175,-0.131571,0.137233
7.505,-0.0721818,0.0815019,0.153684,-0.00538093,-0.130403,0.135784
7.51,-0.0720416,0.080041,0.152083,-0.00461844,-0.129398,0.134017
7.515,-0.0724627,0.0787325,0.151195,-0.00361988,-0.129129,0.132749
7.52,-0.0731803,0.0782373,0.151418,-0.00291966,-0.129672,0.132591
7.525,-0.0735509,0.0783346,0.151885,-0.00276188,-0.130156,0.132918
7.53,-0.072438,0.0773485,0.149787,-0.0028351,-0.128301,0.131136
7.535,-0.0699581,0.0751137,0.145072,-0.0029766,-0.124148,0.127124
7.54,-0.0675345,0.0735326,0.141067,-0.00346302,-0.120436,0.123899
7.545,-0.0665353,0.0726373,0.139173,-0.00352298,-0.118766,0.122289
7.55,-0.0677225,0.0709699,0.138692,-0.00187485,-0.119174,0.121049
7.555,-0.0708635,0.0683725,0.139236,0.00143814,-0.121301,0.119863
7.56,-0.0748793,0.0660487,0.140928,0.00509832,-0.124596,0.119498
7.565,-0.0781369,0.0647455,0.142882,0.00773153,-0.127606,0.119874
7.57,-0.0797169,0.0642763,0.143993,0.00891462,-0.129159,0.120244
7.575,-0.0796788,0.0638425,0.143521,0.00914313,-0.128865,0.119721
7.58,-0.0783991,0.0640206,0.14242,0.00830144,-0.12749,0.119188
7.585,-0.0764136,0.0674981,0.143912,0.00514738,-0.127205,0.122057
7.59,-0.0745764,0.0761188,0.150695,-0.000890503,-0.130061,0.130951
7.595,-0.0741908,0.0885802,0.162771,-0.00830768,-0.13681,0.145118
7.6,-0.0755844,0.102898,0.178483,-0.0157697,-0.146686,0.162455
7.605,-0.0778945,0.118605,0.196499,-0.0235042,-0.158421,0.181925
7.61,-0.0794505,0.134001,0.213451,-0.0314947,-0.169107,0.200602
7.615,-0.0782225,0.147016,0.225238,-0.0397178,-0.175203,0.214921
7.62,-0.0739278,0.158726,0.232654,-0.0489581,-0.177005,0.225963
7.625,-0.0687202,0.170428,0.239148,-0.0587211,-0.177748,0.236469
7.63,-0.0646003,0.182486,0.247087,-0.0680614,-0.179952,0.248014
7.635,-0.0621891,0.195511,0.257701,-0.0769736,-0.184688,0.261662
7.64,-0.0616448,0.208324,0.269968,-0.084685,-0.191457,0.276142
7.645,-0.0623883,0.218262,0.28065,-0.0899936,-0.198053,0.288047
7.65,-0.0632063,0.222965,0.286171,-0.0922364,-0.201713,0.293949
7.655,-0.0632157,0.220039,0.283255,-0.090542,-0.200035,0.290577
7.66,-0.0623833,0.207185,0.269568,-0.0836012,-0.191652,0.275253
7.665,-0.0613204,0.184183,0.245503,-0.0709344,-0.177144,0.248079
7.67,-0.0610901,0.154238,0.215328,-0.053779,-0.15959,0.213369
7.675,-0.0621214,0.122661,0.184783,-0.0349527,-0.14255,0.177503
7.68,-0.063903,0.0940088,0.157912,-0.0173816,-0.128065,0.145446
7.685,-0.0653826,0.0708092,0.136192,-0.00313304,-0.116379,0.119512
7.69,-0.066177,0.0531872,0.119364,0.00749965,-0.107122,0.0996225
7.695,-0.0671154,0.0405668,0.107682,0.0153279,-0.100919,0.0855915
7.7,-0.069469,0.0321778,0.101647,0.0215301,-0.0987937,0.0772636
7.705,-0.0734371,0.0269384,0.100375,0.026846,-0.100351,0.0735046
7.71,-0.0773074,0.0236729,0.10098,0.0309659,-0.102934,0.0719686
7.715,-0.0766935,0.0221128,0.0988063,0.0315122,-0.101325,0.0698126
7.72,-0.0660805,0.0261118,0.0921923,0.0230759,-0.0913788,0.0683029
7.725,-0.0429746,0.0428211,0.0857957,8.86E-05,-0.0743455,0.0742569
7.73,-0.00897716,0.0809805,0.0899576,-0.0415711,-0.05712,0.0986911
7.735,0.0287882,0.152053,0.123265,-0.104409,-0.0545461,0.158955
7.74,0.0595868,0.268176,0.208589,-0.189234,-0.0860264,0.27526
7.745,0.0745097,0.432978,0.358468,-0.292998,-0.163943,0.456941
7.75,0.0657232,0.623788,0.558065,-0.398089,-0.284253,0.682342
7.755,0.0256621,0.785299,0.759637,-0.468208,-0.42376,0.891968
7.76,-0.0461367,0.85712,0.903256,-0.468221,-0.548132,1.01635
7.765,-0.136859,0.815157,0.952015,-0.391615,-0.628661,1.02028
7.77,-0.221116,0.690352,0.911468,-0.270914,-0.653897,0.924811
7.775,-0.27421,0.539631,0.813841,-0.153241,-0.628187,0.781427
7.78,-0.285583,0.404319,0.689902,-0.0685524,-0.563196,0.631748
7.785,-0.261055,0.297829,0.558884,-0.021231,-0.473392,0.494623
7.79,-0.215769,0.217894,0.433663,-0.00122719,-0.374949,0.376176
7.795,-0.165789,0.157965,0.323754,0.00451705,-0.282637,0.27812
7.8,-0.122726,0.111597,0.234324,0.00642542,-0.206143,0.199718
7.805,-0.0915142,0.0749053,0.166419,0.00958915,-0.148918,0.139329
7.81,-0.0709632,0.0475034,0.118467,0.0135445,-0.109367,0.0958228
7.815,-0.0571714,0.0290566,0.086228,0.0162321,-0.0827916,0.0665595
7.82,-0.0475008,0.0174115,0.0649123,0.0173721,-0.0649017,0.0475296
7.825,-0.0411757,0.0106268,0.0518025,0.0176374,-0.053681,0.0360436
7.83,-0.038259,0.0077909,0.0460499,0.0175907,-0.0486757,0.031085
7.835,-0.0380155,0.00795623,0.0459718,0.0173547,-0.0484901,0.0311353
7.84,-0.038532,0.0100988,0.0486308,0.0164159,-0.0503234,0.0339075
7.845,-0.0382577,0.0129329,0.0511906,0.0146212,-0.051643,0.0370217
7.85,-0.0367192,0.014996,0.0517152,0.0125419,-0.0510576,0.0385157
7.855,-0.0338644,0.0158433,0.0497077,0.0104045,-0.0482504,0.0378459
7.86,-0.030085,0.0158179,0.0459029,0.00823707,-0.0438716,0.0356345
7.865,-0.025719,0.0158141,0.0415331,0.00571857,-0.038828,0.0331095
7.87,-0.0211657,0.0170182,0.0381839,0.00239454,-0.0342655,0.031871
7.875,-0.0170697,0.0193981,0.0364678,-0.00134434,-0.0309098,0.0322542
7.88,-0.0133444,0.022159,0.0355035,-0.00508911,-0.0282023,0.0332914
7.885,-0.0096057,0.0250051,0.0346108,-0.00889086,-0.0255284,0.0344193
7.89,-0.00585048,0.0274876,0.0333381,-0.0124922,-0.0226255,0.0351177
7.895,-0.00179847,0.0302316,0.0320301,-0.0164159,-0.0195309,0.0359468
7.9,0.00327866,0.0340642,0.0307856,-0.0215599,-0.0158811,0.037441
7.905,0.00999544,0.0382158,0.0282204,-0.0278348,-0.0105222,0.0383569
7.91,0.0175935,0.0415689,0.0239754,-0.0341574,-0.00368459,0.037842
7.915,0.0246222,0.0444314,0.0198092,-0.0398681,0.00277876,0.0370893
7.92,0.031425,0.0478132,0.0163882,-0.0457482,0.00868151,0.0370667
7.925,0.0400896,0.0524959,0.0124062,-0.0534542,0.015983,0.0374712
7.93,0.0506334,0.0582229,0.00758956,-0.0628482,0.0248513,0.0379968
7.935,0.0606552,0.0642331,0.0035779,-0.0721042,0.0329536,0.0391507
7.94,0.0684722,0.0697656,0.00129337,-0.0798116,0.0387857,0.0410259
7.945,0.0743413,0.0738907,-0.000450529,-0.0855818,0.043181,0.0424007
7.95,0.0794208,0.0758284,-0.00359245,-0.0896331,0.0479277,0.0417054
7.955,0.084894,0.0761614,-0.00873268,-0.0929853,0.0540554,0.03893
7.96,0.0907684,0.0753616,-0.0154068,-0.0959152,0.0613002,0.0346149
7.965,0.0962826,0.0733547,-0.0229279,-0.0979401,0.0688262,0.0291139
7.97,0.101068,0.0711098,-0.029958,-0.0994067,0.0756477,0.023759
7.975,0.105042,0.070117,-0.0349252,-0.101128,0.0808102,0.020318
7.98,0.107443,0.0701136,-0.037329,-0.102512,0.0835839,0.0189282
7.985,0.107978,0.0706215,-0.0373563,-0.103114,0.0839087,0.0192056
7.99,0.106983,0.0721066,-0.0348763,-0.103397,0.0819024,0.0214949
7.995,0.103637,0.0746605,-0.0289769,-0.10294,0.0765648,0.0263754
8,0.0967871,0.0780043,-0.0187829,-0.100916,0.0667244,0.0341915
8.005,0.0864985,0.0808256,-0.00567287,-0.0966046,0.0532152,0.0433895
8.01,0.0738132,0.0813664,0.0075532,-0.0895929,0.0382552,0.0513377
8.015,0.059534,0.0800441,0.02051,-0.0805854,0.0225305,0.0580549
8.02,0.0444982,0.0780147,0.0335165,-0.0707328,0.00634028,0.0643925
8.025,0.0302125,0.0753242,0.0451117,-0.0609316,-0.00860202,0.0695337
8.03,0.0177193,0.0716844,0.0539651,-0.0516172,-0.0209265,0.0725438
8.035,0.00628947,0.0679041,0.0616146,-0.0428356,-0.031942,0.0747776
8.04,-0.0057964,0.0643659,0.0701623,-0.0338151,-0.0438548,0.0776698
8.045,-0.0194738,0.0602267,0.0797005,-0.0235287,-0.0572583,0.080787
8.05,-0.0338432,0.054127,0.0879702,-0.0117108,-0.070329,0.0820398
8.055,-0.0465936,0.0459925,0.0925861,0.000347048,-0.0803554,0.0800084
8.06,-0.0558055,0.0376394,0.0934448,0.0104882,-0.0861697,0.0756815
8.065,-0.0607557,0.0314416,0.0921974,0.0169245,-0.0883075,0.071383
8.07,-0.0621692,0.0281761,0.0903453,0.0196259,-0.0880542,0.0684283
8.075,-0.0618029,0.027152,0.0889548,0.0200057,-0.0870399,0.0670342
8.08,-0.0612403,0.0279128,0.0891531,0.0192416,-0.0868296,0.067588
8.085,-0.0607067,0.0294846,0.0901913,0.0180261,-0.087121,0.0690949
8.09,-0.0599656,0.0308135,0.0907791,0.016831,-0.0870325,0.0702015
8.095,-0.0587242,0.0312731,0.0899973,0.0158489,-0.0858644,0.0700155
8.1,-0.0571429,0.031058,0.0882009,0.0150601,-0.0839143,0.0688542
8.105,-0.0555253,0.0318274,0.0873526,0.013682,-0.0824906,0.0688086
8.11,-0.0532243,0.0338009,0.0870253,0.0112141,-0.0809731,0.069759
8.115,-0.0497855,0.0364738,0.0862593,0.00768552,-0.0785455,0.07086
8.12,-0.0459133,0.0388638,0.0847771,0.00407,-0.0754541,0.0713841
8.125,-0.0429846,0.0403926,0.0833773,0.00149648,-0.072955,0.0714585
8.13,-0.0421147,0.0422208,0.0843355,-6.13E-05,-0.073006,0.0730673
8.135,-0.0435239,0.0443241,0.0878479,-0.000461998,-0.0758475,0.0763095
8.14,-0.0467999,0.0450331,0.091833,0.00102004,-0.0800397,0.0790196
8.145,-0.0504471,0.044342,0.094789,0.00352476,-0.0838521,0.0803273
8.15,-0.0527853,0.0436306,0.0964159,0.00528544,-0.0861413,0.0808559
8.155,-0.0532956,0.0438462,0.0971419,0.00545561,-0.0868551,0.0813995
8.16,-0.0522249,0.0441594,0.0963843,0.00465663,-0.0857995,0.0811429
8.165,-0.0499817,0.0435974,0.0935791,0.00368596,-0.0828848,0.0791989
8.17,-0.0467108,0.042407,0.0891178,0.00248482,-0.0784207,0.0759358
8.175,-0.0436798,0.0412771,0.0849569,0.00138716,-0.0742683,0.0728812
8.18,-0.0427203,0.0401803,0.0829006,0.00146649,-0.0725272,0.0710607
8.185,-0.0439817,0.0385695,0.0825512,0.0031247,-0.0730537,0.069929
8.19,-0.0460717,0.035352,0.0814237,0.00618899,-0.0736095,0.0674205
8.195,-0.0475186,0.0297603,0.0772789,0.0102528,-0.0720518,0.061799
8.2,-0.0476197,0.023219,0.0708387,0.0140878,-0.068392,0.0543042
8.205,-0.04702,0.0181663,0.0651863,0.0166587,-0.0647823,0.0481236
8.21,-0.0468647,0.0146331,0.0614978,0.0186089,-0.0625631,0.0439542
8.215,-0.0476116,0.0114041,0.0590157,0.0209044,-0.0615613,0.0406569
8.22,-0.0491682,0.00801987,0.0571881,0.023757,-0.0614048,0.0376478
8.225,-0.0510874,0.00434848,0.0554358,0.0269847,-0.0615012,0.0345165
8.23,-0.0529449,0.00068506,0.0536299,0.0301722,-0.0615309,0.0313587
8.235,-0.0550161,-0.00272537,0.0522907,0.033337,-0.0619536,0.0286165
8.24,-0.0579866,-0.00528884,0.0526978,0.0365321,-0.0639036,0.0273715
8.245,-0.0617187,-0.00711078,0.0546079,0.0397387,-0.0671611,0.0274225
8.25,-0.0650042,-0.00904804,0.0559562,0.0427541,-0.0698365,0.0270824
8.255,-0.0667422,-0.0118358,0.0549064,0.045367,-0.0702338,0.0248668
8.26,-0.0663708,-0.0148092,0.0515616,0.0468693,-0.0680883,0.021219
8.265,-0.0638261,-0.0165362,0.0472899,0.0463972,-0.0641528,0.0177556
8.27,-0.059976,-0.0163757,0.0436003,0.0440817,-0.0597998,0.0157181
8.275,-0.0569423,-0.0167265,0.0402157,0.0425327,-0.0560942,0.0135615
8.28,-0.0561554,-0.0193223,0.0368332,0.043577,-0.053687,0.0101099
8.285,-0.0570366,-0.0218208,0.0352158,0.0455283,-0.0532619,0.00773362
8.29,-0.0578162,-0.0209082,0.036908,0.0454515,-0.054689,0.00923745
8.295,-0.0575795,-0.0159558,0.0416237,0.0424556,-0.057275,0.0148194
8.3,-0.0572971,-0.00722773,0.0500694,0.0372534,-0.061988,0.0247346
8.305,-0.0580029,0.00500339,0.0630063,0.0305993,-0.0698647,0.0392654
8.31,-0.0590027,0.0188913,0.077894,0.0231583,-0.0790373,0.055879
8.315,-0.0589204,0.0317178,0.0906382,0.0157055,-0.0863477,0.0706422
8.32,-0.0576969,0.0420835,0.0997804,0.00901442,-0.0909195,0.0819051
8.325,-0.0563462,0.0519708,0.108317,0.00252616,-0.0950683,0.0925421
8.33,-0.0551859,0.0638431,0.119029,-0.00499823,-0.100583,0.105581
8.335,-0.0537236,0.0781668,0.13189,-0.0141123,-0.107164,0.121277
8.34,-0.051797,0.0941131,0.14591,-0.0244312,-0.114146,0.138577
8.345,-0.050027,0.108775,0.158802,-0.0339182,-0.120568,0.154486
8.35,-0.0488137,0.119745,0.168559,-0.0409521,-0.1255,0.166452
8.355,-0.0478756,0.125725,0.173601,-0.0449463,-0.127869,0.172816
8.36,-0.046563,0.123512,0.170075,-0.0444265,-0.125076,0.169502
8.365,-0.0451032,0.109911,0.155014,-0.0374168,-0.115538,0.152955
8.37,-0.0444544,0.086074,0.130528,-0.0240291,-0.101026,0.125055
8.375,-0.0453594,0.0562117,0.101571,-0.00626562,-0.0848303,0.0910959
8.38,-0.0470702,0.0245003,0.0715705,0.0130307,-0.0684972,0.0554665
8.385,-0.0486559,-0.00541747,0.0432385,0.0312193,-0.0530552,0.0218359
8.39,-0.0508049,-0.0312038,0.019601,0.0473477,-0.0406488,-0.00669889
8.395,-0.0542176,-0.0519853,0.0022323,0.0613162,-0.0325913,-0.0287249
8.4,-0.0577324,-0.0674729,-0.0097405,0.0722873,-0.0277081,-0.0445792
8.405,-0.0594844,-0.0787226,-0.0192382,0.0797938,-0.0232361,-0.0565577
8.41,-0.0596193,-0.0873994,-0.0277801,0.0848812,-0.0183823,-0.0664989
8.415,-0.0595367,-0.0940368,-0.0345001,0.0886657,-0.0144549,-0.0742108
8.42,-0.0582036,-0.0966925,-0.0384889,0.0894293,-0.0113823,-0.078047
8.425,-0.051097,-0.0926894,-0.0415924,0.0830151,-0.00548751,-0.0775276
8.43,-0.0325763,-0.0778286,-0.0452523,0.0637423,0.00731851,-0.0710608
8.435,7.74E-05,-0.0436241,-0.0437015,0.0251417,0.0252757,-0.0504174
8.44,0.0409249,0.0252216,-0.0157033,-0.0381897,0.0326943,0.0054954
8.445,0.0777973,0.145923,0.068126,-0.129165,0.00558373,0.123581
8.45,0.0988358,0.323136,0.2243,-0.243625,-0.0724367,0.316062
8.455,0.0937994,0.529533,0.435733,-0.359881,-0.197416,0.557296
8.46,0.0547359,0.704374,0.649639,-0.438272,-0.343467,0.781739
8.465,-0.0175772,0.784024,0.801601,-0.442508,-0.472953,0.915461
8.47,-0.108315,0.743281,0.851596,-0.366598,-0.554205,0.920802
8.475,-0.191374,0.612122,0.803495,-0.242919,-0.574388,0.817307
8.48,-0.242805,0.448902,0.691706,-0.11899,-0.53954,0.65853
8.485,-0.253251,0.299555,0.552806,-0.0267336,-0.465377,0.492111
8.49,-0.229719,0.182269,0.411988,0.0273951,-0.370489,0.343094
8.495,-0.187504,0.0954547,0.282958,0.0531444,-0.271621,0.218477
8.5,-0.141227,0.0305215,0.171749,0.063916,-0.180697,0.116781
8.505,-0.100229,-0.0193728,0.0808564,0.0690522,-0.10455,0.0354975
8.51,-0.0686696,-0.0566754,0.0119942,0.0723679,-0.0465712,-0.0257967
8.515,-0.0478306,-0.0826646,-0.0348339,0.0753414,-0.00750364,-0.0678378
8.52,-0.0361942,-0.0989603,-0.062766,0.0780314,0.0153412,-0.0933727
8.525,-0.0305888,-0.108632,-0.0780427,0.0803789,0.0273975,-0.107776
8.53,-0.028456,-0.11433,-0.0858737,0.0824373,0.0331501,-0.115587
8.535,-0.0286826,-0.117705,-0.0890228,0.0845171,0.0348374,-0.119355
8.54,-0.0304298,-0.120063,-0.089633,0.0868869,0.0341809,-0.121068
8.545,-0.0318269,-0.121912,-0.0900849,0.088761,0.0336352,-0.122396
8.55,-0.0313771,-0.122411,-0.0910338,0.0887895,0.0344427,-0.123232
8.555,-0.029286,-0.121472,-0.0921858,0.08704,0.0363152,-0.123355
8.56,-0.0261017,-0.120331,-0.0942296,0.0845432,0.0393336,-0.123877
8.565,-0.0221642,-0.118871,-0.096707,0.0814268,0.0430372,-0.124464
8.57,-0.0178765,-0.116082,-0.0982055,0.077341,0.0463779,-0.123719
8.575,-0.0133455,-0.112185,-0.0988398,0.0724752,0.0493601,-0.121835
8.58,-0.00818688,-0.108874,-0.100687,0.0675849,0.0534048,-0.12099
8.585,-0.00174417,-0.106965,-0.105221,0.0627633,0.0597423,-0.122506
8.59,0.00563071,-0.105828,-0.111459,0.057849,0.0676017,-0.125451
8.595,0.0123687,-0.104884,-0.117253,0.0534137,0.0748369,-0.128251
8.6,0.0170202,-0.10311,-0.120131,0.0497042,0.079184,-0.128888
8.605,0.019087,-0.0996909,-0.118778,0.0465366,0.0795963,-0.126133
8.61,0.0205221,-0.0937709,-0.114293,0.0422902,0.0778354,-0.120126
8.615,0.0242687,-0.0859935,-0.110262,0.0356368,0.0776713,-0.113308
8.62,0.0308284,-0.0788687,-0.109697,0.0277361,0.0811324,-0.108868
8.625,0.0383827,-0.073611,-0.111994,0.0203391,0.0868198,-0.107159
8.63,0.045136,-0.0692563,-0.114392,0.0139259,0.0921036,-0.10603
8.635,0.0514828,-0.0636466,-0.115129,0.0070228,0.0961935,-0.103216
8.64,0.0590134,-0.056826,-0.115839,-0.00126288,0.100951,-0.0996884
8.645,0.0683963,-0.0503339,-0.11873,-0.0104283,0.108037,-0.0976091
8.65,0.0787392,-0.0444106,-0.12315,-0.0198196,0.116561,-0.096741
8.655,0.0886051,-0.0384336,-0.127039,-0.0289665,0.124502,-0.0955354
8.66,0.0967658,-0.0326922,-0.129458,-0.0369929,0.13061,-0.0936174
8.665,0.103139,-0.0289626,-0.132102,-0.0428259,0.135817,-0.0929907
8.67,0.108655,-0.0292672,-0.137922,-0.0458344,0.142361,-0.0965267
8.675,0.114017,-0.0329235,-0.14694,-0.0468191,0.150663,-0.103844
8.68,0.118246,-0.0377284,-0.155974,-0.0464869,0.158321,-0.111834
8.685,0.119815,-0.042401,-0.162216,-0.0446952,0.162831,-0.118136
8.69,0.118548,-0.0453293,-0.163878,-0.0422731,0.163059,-0.120786
8.695,0.115093,-0.0456262,-0.16072,-0.0401069,0.159241,-0.119134
8.7,0.109951,-0.0445734,-0.154525,-0.037746,0.152695,-0.114949
8.705,0.103466,-0.043478,-0.146944,-0.034634,0.144574,-0.10994
8.71,0.09498,-0.041914,-0.136894,-0.0306377,0.133872,-0.103235
8.715,0.0835255,-0.0392179,-0.122743,-0.025581,0.119089,-0.0935084
8.72,0.0688776,-0.0369739,-0.105851,-0.0184196,0.10088,-0.0824602
8.725,0.0523002,-0.037458,-0.0897582,-0.00856911,0.0820174,-0.0734483
8.73,0.0353195,-0.0400964,-0.0754159,0.00275795,0.0639331,-0.066691
8.735,0.0185479,-0.0434006,-0.0619484,0.0143487,0.0464746,-0.0608233
8.74,0.00307924,-0.0478555,-0.0509348,0.0258516,0.031185,-0.0570366
8.745,-0.00938112,-0.0534941,-0.044113,0.036301,0.0200524,-0.0563534
8.75,-0.0185126,-0.0589747,-0.0404621,0.0447373,0.0126726,-0.0574099
8.755,-0.0256743,-0.0647805,-0.0391062,0.052224,0.00775492,-0.059979
8.76,-0.0317295,-0.0710502,-0.0393207,0.0593399,0.00438274,-0.0637226
8.765,-0.0360295,-0.077026,-0.0409964,0.0652726,0.00286764,-0.0681402
8.77,-0.0380689,-0.0821657,-0.0440967,0.0694174,0.00348016,-0.0728976
8.775,-0.0388143,-0.0864286,-0.0476143,0.072309,0.00508067,-0.0773896
8.78,-0.0398618,-0.0901037,-0.050242,0.0750356,0.00599303,-0.0810286
8.785,-0.0415205,-0.0931872,-0.0516666,0.0777735,0.00585784,-0.0836313
8.79,-0.0433927,-0.0954534,-0.0520607,0.0801628,0.00500452,-0.0851673
8.795,-0.0445471,-0.0968006,-0.0522535,0.0816071,0.00444927,-0.0860563
8.8,-0.0442321,-0.0966854,-0.0524532,0.0813587,0.00474648,-0.0861052
8.805,-0.0430601,-0.0948319,-0.0517718,0.0796119,0.00502968,-0.0846416
8.81,-0.042549,-0.0917653,-0.0492163,0.0775464,0.00384933,-0.0813957
8.815,-0.0434183,-0.0879048,-0.0444865,0.0758194,0.000616745,-0.0764361
8.82,-0.0447291,-0.0834742,-0.0387451,0.0740182,-0.00345485,-0.0705634
8.825,-0.0450867,-0.0792108,-0.0341241,0.0717632,-0.00632924,-0.0654339
8.83,-0.0439307,-0.0752428,-0.0313122,0.0688048,-0.00728529,-0.0615195
8.835,-0.0418353,-0.07122,-0.0293848,0.0652725,-0.00718828,-0.0580842
8.84,-0.0395898,-0.0678512,-0.0282614,0.062031,-0.00654044,-0.0554906
8.845,-0.0375988,-0.0660341,-0.0284352,0.0598325,-0.00529061,-0.0545419
8.85,-0.0364211,-0.0651487,-0.0287276,0.0586413,-0.00444181,-0.0541995
8.855,-0.0365561,-0.0639809,-0.0274249,0.058045,-0.00527189,-0.0527731
8.86,-0.0377609,-0.0628234,-0.0250625,0.0580723,-0.00733143,-0.0507409
8.865,-0.039476,-0.063006,-0.02353,0.059168,-0.00920639,-0.0499616
8.87,-0.0410728,-0.0642347,-0.0231619,0.0607993,-0.0103408,-0.0504585
8.875,-0.0415184,-0.0655398,-0.0240214,0.0618101,-0.0101019,-0.0517082
8.88,-0.0399895,-0.0667853,-0.0267959,0.0616464,-0.00761734,-0.0540291
8.885,-0.0372426,-0.0685375,-0.0312949,0.0610721,-0.00343387,-0.0576382
8.89,-0.0347064,-0.0715261,-0.0368196,0.0613334,0.00122005,-0.0625534
8.895,-0.0329625,-0.0755672,-0.0426047,0.0626596,0.00556694,-0.0682266
8.9,-0.0320268,-0.0795638,-0.047537,0.0644268,0.00895483,-0.0733816
8.905,-0.0324707,-0.0830451,-0.0505743,0.0666931,0.0104521,-0.0771452
8.91,-0.0349561,-0.0865865,-0.0516304,0.0701727,0.00962689,-0.0797996
8.915,-0.0388911,-0.090261,-0.05137,0.074566,0.00720469,-0.0817706
8.92,-0.0424217,-0.0930219,-0.0506002,0.0781983,0.00472183,-0.0829202
8.925,-0.0432857,-0.0938972,-0.0506115,0.0792026,0.00422952,-0.0834321
8.93,-0.0417859,-0.093906,-0.0521201,0.0783417,0.00596649,-0.0843082
8.935,-0.0410048,-0.0952349,-0.0542301,0.078658,0.00763559,-0.0862936
8.94,-0.042813,-0.0981277,-0.0553147,0.0813721,0.00721787,-0.08859
8.945,-0.0462634,-0.101256,-0.0549929,0.0851705,0.00504,-0.0902105
8.95,-0.0496121,-0.103383,-0.0537709,0.0883317,0.00240109,-0.0907328
8.955,-0.0518131,-0.10426,-0.0524474,0.0901091,0.000366225,-0.0904753
8.96,-0.0527516,-0.104173,-0.0514212,0.0906003,-0.000768127,-0.0898322
8.965,-0.0529553,-0.103274,-0.0503189,0.0901991,-0.00152211,-0.0886769
8.97,-0.0525769,-0.1015,-0.0489235,0.0889565,-0.00210929,-0.0868472
8.975,-0.051559,-0.0988108,-0.0472518,0.086816,-0.00248677,-0.0843293
8.98,-0.0501704,-0.0949038,-0.0447334,0.0837586,-0.00313903,-0.0806195
8.985,-0.0487385,-0.0896945,-0.040956,0.0799243,-0.00449324,-0.0754311
8.99,-0.0476206,-0.0826166,-0.034996,0.0751925,-0.00728883,-0.0679036
8.995,-0.046844,-0.0725063,-0.0256623,0.0689069,-0.0122293,-0.0566776
9,-0.0463972,-0.0593815,-0.0129843,0.0610714,-0.019291,-0.0417804
9.005,-0.0462596,-0.0454355,0.000824057,0.0529402,-0.0271837,-0.0257564
9.01,-0.0460301,-0.0323103,0.0137198,0.0452298,-0.0344966,-0.0107332
9.015,-0.0448298,-0.0189398,0.02589,0.0368173,-0.0408301,0.00401274
9.02,-0.0418956,-0.00396671,0.0379289,0.0264786,-0.0460867,0.0196081
9.025,-0.0375869,0.0123981,0.049985,0.0145428,-0.0505596,0.0360169
9.03,-0.0338916,0.0284276,0.0623193,0.00315464,-0.0555474,0.0523927
9.035,-0.0324348,0.0421318,0.0745666,-0.00559856,-0.0617772,0.0673758
9.04,-0.0326223,0.0512636,0.0838859,-0.0107625,-0.067266,0.0780285
9.045,-0.0331168,0.0526196,0.0857364,-0.0112599,-0.0686199,0.0798799
9.05,-0.033286,0.0432211,0.0765071,-0.00573604,-0.063389,0.0691251
9.055,-0.0334963,0.021938,0.0554343,0.00667321,-0.0513441,0.0446709
9.06,-0.0345702,-0.00798688,0.0265833,0.0245703,-0.035307,0.0107367
9.065,-0.0366221,-0.0406485,-0.00402645,0.0446122,-0.0188191,-0.0257931
9.07,-0.0399693,-0.0718231,-0.0318538,0.0645434,-0.0046855,-0.0598579
9.075,-0.0445795,-0.0982578,-0.0536783,0.0824671,0.00525319,-0.0877203
9.08,-0.0494528,-0.117674,-0.0682214,0.0964908,0.010836,-0.107327
9.085,-0.0537098,-0.130517,-0.0768076,0.106364,0.0133355,-0.119699
9.09,-0.0569415,-0.139134,-0.0821922,0.113204,0.0145785,-0.127783
9.095,-0.0586684,-0.145493,-0.0868241,0.117872,0.0162557,-0.134128
9.1,-0.0588003,-0.150844,-0.0920437,0.121038,0.0191931,-0.140231
9.105,-0.0569211,-0.155692,-0.0987706,0.122752,0.0241618,-0.146914
9.11,-0.0505584,-0.157708,-0.10715,0.120243,0.0326729,-0.152915
9.115,-0.035327,-0.151185,-0.115858,0.107683,0.0464946,-0.154177
9.12,-0.00677944,-0.128192,-0.121412,0.0779256,0.0661833,-0.144109
9.125,0.0339094,-0.0775093,-0.111419,0.0251724,0.0839052,-0.109078
9.13,0.0756248,0.0147738,-0.060851,-0.0521916,0.0787943,-0.0266027
9.135,0.105071,0.159419,0.0543487,-0.152703,0.0292843,0.123419
9.14,0.112586,0.348399,0.235813,-0.26615,-0.0711452,0.337295
9.145,0.089791,0.539886,0.450095,-0.363544,-0.208022,0.571566
9.15,0.0324338,0.670087,0.637653,-0.405601,-0.349424,0.755024
9.155,-0.0533437,0.689602,0.742946,-0.367344,-0.459738,0.827082
9.16,-0.147184,0.598534,0.745718,-0.260587,-0.515517,0.776104
9.165,-0.222528,0.444638,0.667166,-0.128235,-0.513665,0.6419
