Time,Lead I,Lead II,Lead III,aVR,aVL,aVF
0,-0.26398,0.106385,0.370365,0.0909874,-0.366239,0.275252
0.005,-0.235597,0.160526,0.396124,0.0433424,-0.364724,0.321382
0.01,-0.209277,0.262737,0.472014,-0.0308648,-0.393344,0.424208
0.015,-0.198048,0.423753,0.621802,-0.130311,-0.47334,0.603651
0.02,-0.209944,0.638435,0.848379,-0.247389,-0.611023,0.858412
0.025,-0.247284,0.86919,1.11647,-0.359058,-0.787366,1.14642
0.03,-0.306348,1.04304,1.34939,-0.425331,-0.95594,1.38127
0.035,-0.37731,1.09224,1.46955,-0.412766,-1.06629,1.47905
0.04,-0.445718,1.00361,1.44932,-0.322097,-1.0941,1.4162
0.045,-0.495691,0.825314,1.321,-0.190307,-1.04887,1.23918
0.05,-0.51564,0.626888,1.14253,-0.0642294,-0.957343,1.02157
0.055,-0.503144,0.458278,0.961422,0.025903,-0.845567,0.819664
0.06,-0.466012,0.337767,0.803778,0.0740423,-0.733113,0.659071
0.065,-0.417254,0.260977,0.67823,0.0902263,-0.632478,0.542251
0.07,-0.369047,0.214773,0.58382,0.0890698,-0.550138,0.461068
0.075,-0.329256,0.186238,0.515494,0.0825712,-0.487716,0.405145
0.08,-0.300705,0.167156,0.467861,0.0771043,-0.443732,0.366628
0.085,-0.282587,0.152876,0.435464,0.0748885,-0.414567,0.339678
0.09,-0.272275,0.141284,0.413558,0.0756274,-0.395966,0.320338
0.095,-0.26664,0.133065,0.399705,0.0771193,-0.384715,0.307595
0.1,-0.263235,0.128565,0.3918,0.0777519,-0.378185,0.300433
0.105,-0.260514,0.125532,0.386046,0.0779316,-0.373292,0.29536
0.11,-0.2578,0.121498,0.379298,0.078694,-0.367828,0.289134
0.115,-0.254967,0.118758,0.373725,0.0786403,-0.362976,0.284335
0.12,-0.252023,0.120785,0.372807,0.0757701,-0.360746,0.284976
0.125,-0.248933,0.127518,0.376452,0.0700991,-0.361066,0.290967
0.13,-0.245903,0.136262,0.382165,0.063301,-0.362615,0.299314
0.135,-0.243248,0.144619,0.387867,0.0569433,-0.364374,0.307431
0.14,-0.241111,0.150533,0.391645,0.0522952,-0.365322,0.313027
0.145,-0.239125,0.154259,0.393384,0.0489975,-0.365179,0.316181
0.15,-0.236813,0.157727,0.394541,0.0456602,-0.364512,0.318852
0.155,-0.234034,0.162185,0.396219,0.041482,-0.363876,0.322394
0.16,-0.230962,0.167362,0.398323,0.0367195,-0.363317,0.326598
0.165,-0.227699,0.172364,0.400063,0.031948,-0.362438,0.33049
0.17,-0.22422,0.177132,0.401352,0.0271866,-0.361174,0.333988
0.175,-0.220522,0.181717,0.402239,0.0224039,-0.359551,0.337147
0.18,-0.216228,0.18668,0.402908,0.0170598,-0.357459,0.340399
0.185,-0.211188,0.193387,0.404575,0.0102775,-0.355511,0.345233
0.19,-0.206045,0.201364,0.40741,0.0027025,-0.354178,0.351476
0.195,-0.200993,0.208918,0.409911,-0.00457572,-0.352705,0.357281
0.2,-0.195327,0.216256,0.411584,-0.0120833,-0.3504,0.362483
0.205,-0.188901,0.224209,0.41311,-0.0203852,-0.347571,0.367956
0.21,-0.182314,0.232384,0.414698,-0.0289076,-0.344685,0.373592
0.215,-0.17578,0.240201,0.415981,-0.037194,-0.341653,0.378847
0.22,-0.169037,0.248099,0.417137,-0.0456464,-0.338428,0.384074
0.225,-0.161879,0.255929,0.417808,-0.0542997,-0.334682,0.388982
0.23,-0.154553,0.263074,0.417627,-0.0626546,-0.330348,0.393003
0.235,-0.147388,0.269386,0.416774,-0.0704355,-0.325719,0.396155
0.24,-0.1406,0.274732,0.415332,-0.0774409,-0.320967,0.398408
0.245,-0.134715,0.278487,0.413203,-0.0830068,-0.316341,0.399347
0.25,-0.130145,0.280091,0.410236,-0.0865714,-0.311989,0.39856
0.255,-0.127013,0.280232,0.407245,-0.0884606,-0.308454,0.396915
0.26,-0.125053,0.280569,0.405621,-0.0897873,-0.306385,0.396172
0.265,-0.123919,0.282277,0.406196,-0.091428,-0.306062,0.39749
0.27,-0.123562,0.285322,0.408885,-0.0933921,-0.307408,0.4008
0.275,-0.124205,0.289292,0.413496,-0.0953128,-0.310442,0.405755
0.28,-0.12652,0.2937,0.42022,-0.0965213,-0.315661,0.412182
0.285,-0.131356,0.297939,0.429295,-0.0961768,-0.323692,0.419869
0.29,-0.139043,0.30184,0.440883,-0.0939907,-0.33482,0.428811
0.295,-0.149229,0.304997,0.454226,-0.0899325,-0.348405,0.438337
0.3,-0.161047,0.306278,0.467325,-0.0838494,-0.36279,0.44664
0.305,-0.173696,0.305279,0.478975,-0.0759696,-0.37682,0.452789
0.31,-0.186737,0.303278,0.490016,-0.067285,-0.390723,0.458008
0.315,-0.199718,0.300909,0.500627,-0.0584227,-0.404344,0.462767
0.32,-0.212104,0.297074,0.509179,-0.0490574,-0.416433,0.46549
0.325,-0.223345,0.291548,0.514893,-0.0393767,-0.426222,0.465599
0.33,-0.233064,0.284751,0.517815,-0.0298419,-0.43352,0.463362
0.335,-0.240874,0.276729,0.517602,-0.020701,-0.437906,0.458607
0.34,-0.246596,0.26906,0.515656,-0.0129694,-0.440086,0.453055
0.345,-0.250532,0.263672,0.514204,-0.00758646,-0.441521,0.449107
0.35,-0.253268,0.260622,0.513889,-0.00424584,-0.442918,0.447164
0.355,-0.254967,0.259778,0.514746,-0.00277738,-0.444394,0.447171
0.36,-0.255683,0.261321,0.517004,-0.00325545,-0.446111,0.449366
0.365,-0.255596,0.264148,0.519744,-0.00493769,-0.447642,0.45258
0.37,-0.254897,0.266443,0.52134,-0.0066657,-0.44816,0.454826
0.375,-0.254123,0.26694,0.521062,-0.00739993,-0.447553,0.454953
0.38,-0.25365,0.267178,0.520828,-0.0078102,-0.447145,0.454955
0.385,-0.253222,0.270391,0.523613,-0.00991233,-0.448506,0.458418
0.39,-0.252663,0.276116,0.528779,-0.013541,-0.451165,0.464706
0.395,-0.251803,0.282123,0.533926,-0.0175056,-0.45364,0.471146
0.4,-0.250433,0.287661,0.538094,-0.0214936,-0.455256,0.476749
0.405,-0.248653,0.29277,0.541422,-0.0254711,-0.45615,0.481621
0.41,-0.246689,0.297001,0.54369,-0.0290474,-0.456326,0.485373
0.415,-0.244852,0.299765,0.544617,-0.031704,-0.4558,0.487504
0.42,-0.243509,0.300496,0.544004,-0.0329015,-0.454671,0.487572
0.425,-0.24281,0.299635,0.542445,-0.0328078,-0.453367,0.486175
0.43,-0.242569,0.29956,0.542129,-0.0329041,-0.453045,0.485949
0.435,-0.242602,0.300977,0.543579,-0.0337027,-0.453902,0.487604
0.44,-0.242614,0.303163,0.545777,-0.0349584,-0.455178,0.490136
0.445,-0.24229,0.305035,0.547326,-0.0362258,-0.455885,0.492111
0.45,-0.241724,0.305295,0.54702,-0.0367026,-0.455381,0.492084
0.455,-0.241309,0.303402,0.544711,-0.0358497,-0.453808,0.489658
0.46,-0.24128,0.299868,0.541147,-0.0338257,-0.451734,0.48556
0.465,-0.241751,0.296254,0.538004,-0.0314672,-0.450192,0.481659
0.47,-0.242687,0.293849,0.536536,-0.0295383,-0.449885,0.479423
0.475,-0.243759,0.292981,0.536739,-0.0284183,-0.45062,0.479039
0.48,-0.24459,0.29286,0.53745,-0.027869,-0.45151,0.479379
0.485,-0.24532,0.291777,0.537097,-0.0268224,-0.451728,0.478551
0.49,-0.246218,0.289368,0.535586,-0.0249125,-0.451374,0.476287
0.495,-0.247332,0.286328,0.53366,-0.0225141,-0.450906,0.47342
0.5,-0.248277,0.284104,0.532381,-0.0206846,-0.450713,0.471397
0.505,-0.248709,0.283593,0.532302,-0.0201405,-0.450917,0.471057
0.51,-0.248897,0.283474,0.532372,-0.0199631,-0.451066,0.471029
0.515,-0.249307,0.282094,0.531401,-0.0189297,-0.450742,0.469672
0.52,-0.249873,0.279785,0.529659,-0.0172697,-0.450063,0.467333
0.525,-0.250594,0.276794,0.527388,-0.015127,-0.449168,0.464295
0.53,-0.251614,0.273333,0.524947,-0.01254,-0.448347,0.460887
0.535,-0.253075,0.270379,0.523454,-0.00999021,-0.448329,0.45832
0.54,-0.25469,0.269418,0.524108,-0.00850282,-0.449639,0.458142
0.545,-0.256088,0.270702,0.52679,-0.00843766,-0.451994,0.460432
0.55,-0.257242,0.272393,0.529635,-0.00874712,-0.454304,0.463051
0.555,-0.258326,0.272879,0.531205,-0.00840191,-0.455836,0.464238
0.56,-0.259013,0.273119,0.532132,-0.00814433,-0.456768,0.464912
0.565,-0.259038,0.274289,0.533328,-0.00880514,-0.457473,0.466278
0.57,-0.258593,0.275422,0.534015,-0.00971594,-0.457612,0.467328
0.575,-0.257894,0.275187,0.533081,-0.00998424,-0.456669,0.466653
0.58,-0.257096,0.273874,0.53097,-0.00968683,-0.45499,0.464677
0.585,-0.256018,0.272269,0.528287,-0.00938238,-0.452819,0.462201
0.59,-0.254734,0.27045,0.525184,-0.00907376,-0.450285,0.459359
0.595,-0.253708,0.268493,0.522201,-0.00853615,-0.447971,0.456507
0.6,-0.253147,0.266706,0.519853,-0.0078278,-0.446292,0.454119
0.605,-0.252785,0.265276,0.518061,-0.00721172,-0.445048,0.452259
0.61,-0.252469,0.263821,0.516291,-0.00655399,-0.443844,0.450398
0.615,-0.252243,0.26205,0.514293,-0.00566177,-0.442559,0.448221
0.62,-0.251835,0.260092,0.511927,-0.00476756,-0.440958,0.445726
0.625,-0.251169,0.258588,0.509757,-0.00428346,-0.439321,0.443604
0.63,-0.250637,0.258176,0.508813,-0.00435244,-0.438469,0.442821
0.635,-0.250637,0.258514,0.50915,-0.00454787,-0.438663,0.443211
0.64,-0.251198,0.258861,0.510059,-0.00442408,-0.439512,0.443936
0.645,-0.252041,0.258884,0.510925,-0.003951,-0.440499,0.44445
0.65,-0.25269,0.259,0.511689,-0.00364297,-0.441314,0.444957
0.655,-0.252777,0.260089,0.512867,-0.00422165,-0.442045,0.446266
0.66,-0.252281,0.262249,0.514531,-0.00575505,-0.442719,0.448474
0.665,-0.251554,0.264608,0.516162,-0.00753708,-0.443241,0.450778
0.67,-0.2509,0.266723,0.517622,-0.0091355,-0.443706,0.452842
0.675,-0.250391,0.268494,0.518885,-0.0104517,-0.444141,0.454593
0.68,-0.24983,0.270325,0.520155,-0.011833,-0.444551,0.456384
0.685,-0.248994,0.272893,0.521887,-0.0137985,-0.445068,0.458866
0.69,-0.248319,0.27703,0.52535,-0.0165762,-0.446678,0.463254
0.695,-0.248493,0.284111,0.532604,-0.020564,-0.450967,0.47153
0.7,-0.249649,0.295504,0.545153,-0.0264747,-0.458879,0.485354
0.705,-0.251232,0.310752,0.561984,-0.0343637,-0.469511,0.503874
0.71,-0.252796,0.327138,0.579935,-0.0429215,-0.480777,0.523699
0.715,-0.254042,0.343254,0.597296,-0.0515068,-0.49152,0.543026
0.72,-0.253858,0.359467,0.613326,-0.0609732,-0.500669,0.561642
0.725,-0.25156,0.376152,0.627712,-0.0719331,-0.507648,0.579581
0.73,-0.248472,0.392938,0.64141,-0.0834074,-0.513773,0.597181
0.735,-0.246358,0.408796,0.655154,-0.0937836,-0.520488,0.614272
0.74,-0.245361,0.422934,0.668295,-0.102522,-0.527499,0.630021
0.745,-0.244184,0.435,0.679184,-0.110167,-0.533106,0.643274
0.75,-0.241863,0.442483,0.684345,-0.115828,-0.534746,0.650574
0.755,-0.238743,0.441373,0.680115,-0.116988,-0.530503,0.647491
0.76,-0.23575,0.429529,0.665278,-0.111878,-0.520208,0.632087
0.765,-0.23411,0.408328,0.642438,-0.100585,-0.506075,0.606659
0.77,-0.234852,0.38193,0.616782,-0.0849151,-0.491691,0.576606
0.775,-0.237963,0.354544,0.592507,-0.0673082,-0.479471,0.54678
0.78,-0.242755,0.328815,0.57157,-0.0496864,-0.470151,0.519837
0.785,-0.247925,0.307593,0.555517,-0.0344493,-0.463867,0.498316
0.79,-0.252126,0.291799,0.543925,-0.0229051,-0.4596,0.482505
0.795,-0.254858,0.280076,0.534934,-0.0145593,-0.455987,0.470546
0.8,-0.256411,0.271491,0.527902,-0.0087066,-0.452823,0.461529
0.805,-0.257001,0.266137,0.523139,-0.0052747,-0.450414,0.455689
0.81,-0.256892,0.263209,0.520101,-0.00364706,-0.448597,0.452244
0.815,-0.256054,0.260264,0.516319,-0.00243068,-0.44593,0.44836
0.82,-0.252636,0.25722,0.509856,-0.00264627,-0.440225,0.442871
0.825,-0.243354,0.260318,0.503672,-0.00979445,-0.431295,0.44109
0.83,-0.224452,0.279662,0.504114,-0.0318757,-0.420638,0.452514
0.835,-0.196009,0.327288,0.523297,-0.0757937,-0.415291,0.491085
0.84,-0.166815,0.418414,0.585229,-0.145261,-0.434192,0.579453
0.845,-0.150893,0.566393,0.717285,-0.239889,-0.501242,0.741132
0.85,-0.1579,0.771963,0.929863,-0.354529,-0.62802,0.982549
0.855,-0.191311,1.00307,1.19438,-0.468669,-0.80003,1.2687
0.86,-0.248595,1.18853,1.43712,-0.54267,-0.973249,1.51592
0.865,-0.3204,1.25678,1.57718,-0.540618,-1.09557,1.63619
0.87,-0.392366,1.18607,1.57844,-0.458246,-1.13784,1.59609
0.875,-0.447689,1.01825,1.46594,-0.329413,-1.10483,1.43425
0.88,-0.473184,0.823431,1.29662,-0.202215,-1.02179,1.22401
0.885,-0.465232,0.653653,1.11889,-0.108785,-0.914591,1.02338
0.89,-0.431225,0.527097,0.958322,-0.0553514,-0.802255,0.857606
0.895,-0.384088,0.441177,0.825264,-0.0329604,-0.698219,0.73118
0.9,-0.335759,0.387041,0.7228,-0.0296074,-0.611159,0.640767
0.905,-0.294459,0.354317,0.648775,-0.034559,-0.544576,0.579135
0.91,-0.264184,0.334192,0.598376,-0.040419,-0.497999,0.538418
0.915,-0.244783,0.320926,0.565708,-0.0439611,-0.467937,0.511898
0.92,-0.233649,0.31049,0.544139,-0.0443644,-0.449055,0.49342
0.925,-0.227677,0.301207,0.528885,-0.0424526,-0.436801,0.479254
0.93,-0.22426,0.294096,0.518356,-0.0403201,-0.428749,0.469069
0.935,-0.221747,0.289323,0.511069,-0.0390148,-0.423092,0.462106
0.94,-0.219411,0.286041,0.505452,-0.0384687,-0.4185,0.456968
0.945,-0.217218,0.284336,0.501554,-0.038751,-0.414983,0.453734
0.95,-0.215422,0.284026,0.499448,-0.0396083,-0.41273,0.452339
0.955,-0.214047,0.284087,0.498134,-0.0404376,-0.411178,0.451615
0.96,-0.212724,0.283755,0.49648,-0.0410099,-0.409459,0.450469
0.965,-0.211152,0.282008,0.49316,-0.0409089,-0.406634,0.447543
0.97,-0.209335,0.279873,0.489208,-0.0407252,-0.403304,0.444029
0.975,-0.207398,0.279566,0.486964,-0.0416661,-0.40089,0.442556
0.98,-0.205346,0.28231,0.487656,-0.0444351,-0.400104,0.44454
0.985,-0.203063,0.287501,0.490564,-0.0487507,-0.400465,0.449216
0.99,-0.200522,0.292423,0.492945,-0.0530588,-0.400374,0.453432
0.995,-0.197697,0.295916,0.493613,-0.0567069,-0.399128,0.455835
1,-0.194465,0.299711,0.494176,-0.0607641,-0.397587,0.458351
1.005,-0.191057,0.30403,0.495088,-0.0652249,-0.396146,0.461371
1.01,-0.187889,0.308212,0.4961,-0.0694685,-0.394901,0.46437
1.015,-0.184807,0.312551,0.497358,-0.0737532,-0.393847,0.467601
1.02,-0.181197,0.317918,0.499115,-0.0789361,-0.392778,0.471714
1.025,-0.176814,0.324765,0.501579,-0.0854196,-0.39167,0.477089
1.03,-0.171665,0.332185,0.50385,-0.0926758,-0.390009,0.482684
1.035,-0.16553,0.338938,0.504468,-0.100117,-0.386824,0.486941
1.04,-0.158322,0.344884,0.503206,-0.107712,-0.381933,0.489645
1.045,-0.15041,0.351702,0.502112,-0.116216,-0.376733,0.492949
1.05,-0.142428,0.359331,0.501759,-0.125228,-0.371922,0.49715
1.055,-0.134819,0.366373,0.501192,-0.133688,-0.367201,0.500889
1.06,-0.127727,0.37256,0.500287,-0.141354,-0.362584,0.503938
1.065,-0.121138,0.378157,0.499295,-0.14839,-0.358207,0.506597
1.07,-0.115274,0.382109,0.497383,-0.154057,-0.353718,0.507774
1.075,-0.110496,0.383862,0.494358,-0.157828,-0.349212,0.50704
1.08,-0.106986,0.384685,0.491671,-0.16033,-0.345635,0.505964
1.085,-0.104471,0.385715,0.490185,-0.162376,-0.343325,0.505701
1.09,-0.102632,0.386852,0.489484,-0.164094,-0.341858,0.505953
1.095,-0.101667,0.387948,0.489615,-0.165284,-0.341377,0.506661
1.1,-0.102016,0.389171,0.491187,-0.165789,-0.342486,0.508275
1.105,-0.103923,0.39084,0.494763,-0.165652,-0.345651,0.511303
1.11,-0.107525,0.393357,0.500882,-0.165026,-0.351263,0.516289
1.115,-0.113229,0.39657,0.509798,-0.163587,-0.359704,0.523291
1.12,-0.121194,0.400133,0.521326,-0.161045,-0.370959,0.532004
1.125,-0.13121,0.403438,0.534648,-0.157171,-0.384434,0.541604
1.13,-0.143208,0.405361,0.548569,-0.151354,-0.399397,0.550751
1.135,-0.156665,0.405767,0.562433,-0.143819,-0.415171,0.55899
1.14,-0.170617,0.405111,0.575728,-0.135385,-0.430902,0.566287
1.145,-0.184071,0.402973,0.587044,-0.126383,-0.445203,0.571587
1.15,-0.196462,0.398884,0.595346,-0.116868,-0.45715,0.574018
1.155,-0.207437,0.393407,0.600844,-0.10737,-0.466661,0.574031
1.16,-0.216858,0.386942,0.6038,-0.0981983,-0.473807,0.572005
1.165,-0.224718,0.380094,0.604812,-0.0897065,-0.478929,0.568636
1.17,-0.231153,0.374596,0.605748,-0.0828168,-0.483185,0.566001
1.175,-0.236511,0.371086,0.607597,-0.0776972,-0.487345,0.565043
1.18,-0.241154,0.368391,0.609545,-0.0734605,-0.491151,0.564611
1.185,-0.245316,0.366109,0.611425,-0.0697399,-0.49464,0.56438
1.19,-0.249099,0.365358,0.614457,-0.067122,-0.498575,0.565697
1.195,-0.252428,0.366571,0.618999,-0.0659004,-0.503118,0.569019
1.2,-0.254851,0.369321,0.624171,-0.0660891,-0.507504,0.573593
1.205,-0.256155,0.372552,0.628707,-0.0672017,-0.510875,0.578076
1.21,-0.256604,0.375207,0.631811,-0.0684755,-0.512927,0.581402
1.215,-0.25659,0.376781,0.633371,-0.0693923,-0.513819,0.583211
1.22,-0.256164,0.377929,0.634093,-0.0703012,-0.51399,0.584291
1.225,-0.255068,0.380861,0.63593,-0.0726265,-0.514418,0.587044
1.23,-0.253749,0.385157,0.638906,-0.0758686,-0.515374,0.591243
1.235,-0.252579,0.389508,0.642087,-0.0790559,-0.516536,0.595592
1.24,-0.251373,0.393218,0.644591,-0.0818944,-0.517284,0.599179
1.245,-0.250018,0.395135,0.645153,-0.0837835,-0.516827,0.600611
1.25,-0.248841,0.3944,0.643241,-0.084038,-0.515044,0.599082
1.255,-0.248092,0.391596,0.639687,-0.082852,-0.512559,0.595411
1.26,-0.2476,0.388129,0.635729,-0.0811345,-0.50999,0.591125
1.265,-0.247088,0.384845,0.631933,-0.0795337,-0.507503,0.587036
1.27,-0.246621,0.382604,0.629224,-0.0785097,-0.505669,0.584179
1.275,-0.246197,0.382291,0.628487,-0.0785738,-0.504999,0.583573
1.28,-0.245745,0.3826,0.628345,-0.0790129,-0.504656,0.583669
1.285,-0.245336,0.382175,0.627512,-0.0790038,-0.503939,0.582943
1.29,-0.245338,0.38072,0.626058,-0.0781624,-0.503101,0.581263
1.295,-0.246201,0.377905,0.624106,-0.0760394,-0.502472,0.578511
1.3,-0.247613,0.374301,0.621914,-0.0731431,-0.502021,0.575164
1.305,-0.249034,0.370889,0.619923,-0.0703527,-0.501692,0.572045
1.31,-0.250142,0.368378,0.61852,-0.0682634,-0.501522,0.569786
1.315,-0.250828,0.366518,0.617346,-0.0667938,-0.50124,0.568034
1.32,-0.251224,0.364682,0.615905,-0.0655049,-0.500637,0.566142
1.325,-0.251397,0.362746,0.614142,-0.0642875,-0.499719,0.564006
1.33,-0.251382,0.360818,0.6122,-0.0631828,-0.498589,0.561772
1.335,-0.251546,0.358935,0.61048,-0.0620009,-0.497691,0.559692
1.34,-0.252057,0.356991,0.609048,-0.0605839,-0.497159,0.557743
1.345,-0.252771,0.354411,0.607182,-0.0586822,-0.496494,0.555176
1.35,-0.253402,0.350853,0.604255,-0.0562632,-0.495169,0.551432
1.355,-0.253948,0.346897,0.600845,-0.0536642,-0.493514,0.547179
1.36,-0.254472,0.343382,0.597854,-0.051332,-0.49209,0.543422
1.365,-0.255062,0.340789,0.595851,-0.0494946,-0.491275,0.54077
1.37,-0.255619,0.339586,0.595205,-0.0484783,-0.491223,0.539701
1.375,-0.255993,0.339219,0.595212,-0.0480504,-0.491444,0.539494
1.38,-0.256275,0.33749,0.593765,-0.0468892,-0.49077,0.53766
1.385,-0.256484,0.333068,0.589552,-0.0442156,-0.488459,0.532674
1.39,-0.25634,0.328218,0.584558,-0.0414992,-0.485492,0.526991
1.395,-0.25564,0.325743,0.581383,-0.0404743,-0.483255,0.52373
1.4,-0.25457,0.325692,0.580262,-0.0410624,-0.48199,0.523052
1.405,-0.253579,0.326134,0.579713,-0.0418901,-0.481101,0.522991
1.41,-0.252979,0.326068,0.579047,-0.0421982,-0.48037,0.522569
1.415,-0.252606,0.325976,0.578583,-0.0423601,-0.479887,0.522247
1.42,-0.25204,0.326336,0.578375,-0.0428948,-0.47944,0.522335
1.425,-0.251259,0.326707,0.577966,-0.0435602,-0.478753,0.522313
1.43,-0.250578,0.32638,0.576959,-0.0437642,-0.477778,0.521543
1.435,-0.250105,0.325385,0.57549,-0.0434629,-0.476657,0.52012
1.44,-0.249779,0.324646,0.574425,-0.0432245,-0.475854,0.519079
1.445,-0.249446,0.324938,0.574385,-0.043585,-0.475639,0.519224
1.45,-0.248924,0.325648,0.574573,-0.0442965,-0.475446,0.519742
1.455,-0.248169,0.325964,0.574133,-0.0449152,-0.474756,0.519671
1.46,-0.247436,0.326054,0.57349,-0.0453903,-0.473962,0.519352
1.465,-0.247094,0.325193,0.572287,-0.0450905,-0.473069,0.51816
1.47,-0.246957,0.322638,0.569596,-0.0436944,-0.471437,0.515131
1.475,-0.246962,0.319153,0.566116,-0.0416794,-0.469431,0.51111
1.48,-0.24734,0.316111,0.563451,-0.0397052,-0.46811,0.507816
1.485,-0.247874,0.314529,0.562403,-0.0384833,-0.467814,0.506297
1.49,-0.248173,0.314803,0.562977,-0.0384688,-0.468318,0.506786
1.495,-0.248039,0.316493,0.564533,-0.0395219,-0.469138,0.50866
1.5,-0.247477,0.318356,0.565834,-0.040922,-0.469565,0.510487
1.505,-0.24657,0.319672,0.566242,-0.0422058,-0.469277,0.511482
1.51,-0.245394,0.320755,0.566149,-0.0435094,-0.468544,0.512054
1.515,-0.244157,0.322398,0.566555,-0.0451729,-0.468065,0.513237
1.52,-0.243188,0.326999,0.570187,-0.0483885,-0.469602,0.51799
1.525,-0.242765,0.337228,0.579993,-0.0545379,-0.475019,0.529557
1.53,-0.242951,0.352542,0.595493,-0.0632726,-0.484075,0.547348
1.535,-0.243603,0.369609,0.613212,-0.0727496,-0.494682,0.567431
1.54,-0.244631,0.384996,0.629627,-0.0810398,-0.504753,0.585792
1.545,-0.245457,0.397808,0.643265,-0.0879594,-0.513104,0.601063
1.55,-0.244748,0.409702,0.65445,-0.0952367,-0.519152,0.614389
1.555,-0.242031,0.4218,0.663832,-0.10379,-0.523,0.626789
1.56,-0.238515,0.434178,0.672693,-0.112966,-0.526085,0.639052
1.565,-0.235767,0.446947,0.682714,-0.121925,-0.530285,0.65221
1.57,-0.234189,0.459329,0.693518,-0.129985,-0.535611,0.665596
1.575,-0.232868,0.469237,0.702105,-0.136467,-0.539806,0.676274
1.58,-0.230682,0.474743,0.705425,-0.140909,-0.540461,0.68137
1.585,-0.227098,0.473468,0.700566,-0.142242,-0.535586,0.677828
1.59,-0.223045,0.462637,0.685682,-0.138329,-0.524654,0.662982
1.595,-0.220126,0.442235,0.66236,-0.128234,-0.509504,0.637738
1.6,-0.219283,0.414928,0.63421,-0.112956,-0.492764,0.60572
1.605,-0.220103,0.386016,0.606119,-0.0957903,-0.477019,0.57281
1.61,-0.22192,0.360185,0.582105,-0.0798277,-0.464203,0.544031
1.615,-0.22443,0.33893,0.563359,-0.0661065,-0.45483,0.520936
1.62,-0.22719,0.322247,0.549436,-0.0548809,-0.448385,0.503266
1.625,-0.229703,0.309307,0.53901,-0.045959,-0.443817,0.489776
1.63,-0.231633,0.299863,0.531495,-0.0393926,-0.440592,0.479985
1.635,-0.232954,0.292583,0.525537,-0.0344266,-0.437915,0.472341
1.64,-0.233654,0.286199,0.519852,-0.0303369,-0.435037,0.465374
1.645,-0.23323,0.280807,0.514037,-0.0274684,-0.431435,0.458903
1.65,-0.229191,0.277616,0.506808,-0.0279583,-0.424929,0.452887
1.655,-0.217495,0.281961,0.499456,-0.0372193,-0.413932,0.451151
1.66,-0.194236,0.304805,0.499041,-0.0638367,-0.400264,0.4641
1.665,-0.161592,0.360814,0.522406,-0.115021,-0.394906,0.509927
1.67,-0.13171,0.466118,0.597829,-0.19307,-0.4212,0.61427
1.675,-0.119239,0.63197,0.751209,-0.296026,-0.502553,0.798578
1.68,-0.132175,0.849868,0.982043,-0.41436,-0.643293,1.05765
1.685,-0.172433,1.0742,1.24664,-0.520637,-0.819299,1.33994
1.69,-0.235516,1.2296,1.46512,-0.573934,-0.98186,1.55579
1.695,-0.310611,1.25519,1.5658,-0.545353,-1.08335,1.6287
1.7,-0.381724,1.14831,1.53004,-0.44259,-1.10375,1.54634
1.705,-0.431333,0.966007,1.39734,-0.308694,-1.05578,1.36448
1.71,-0.447781,0.77845,1.22623,-0.190912,-0.96649,1.1574
1.715,-0.430697,0.626374,1.05707,-0.112974,-0.858963,0.971937
1.72,-0.390207,0.517447,0.907654,-0.0734616,-0.74932,0.822782
1.725,-0.340355,0.443162,0.783517,-0.0593556,-0.648868,0.708224
1.73,-0.292919,0.393091,0.68601,-0.057834,-0.565185,0.623019
1.735,-0.254685,0.359783,0.614469,-0.0606784,-0.501806,0.562485
1.74,-0.227972,0.338356,0.566328,-0.06373,-0.458589,0.522319
1.745,-0.211855,0.325154,0.537009,-0.0654128,-0.432357,0.49777
1.75,-0.203593,0.316393,0.519986,-0.0651255,-0.417758,0.482884
1.755,-0.200076,0.309918,0.509994,-0.0634175,-0.409959,0.473376
1.76,-0.198684,0.306032,0.504716,-0.0619773,-0.406108,0.468086
1.765,-0.197268,0.304707,0.501975,-0.0620302,-0.403708,0.465738
1.77,-0.194786,0.305278,0.500064,-0.0637926,-0.401171,0.464964
1.775,-0.191607,0.306901,0.498508,-0.0665648,-0.398438,0.465003
1.78,-0.188469,0.309327,0.497796,-0.0697772,-0.396215,0.465992
1.785,-0.185627,0.312709,0.498337,-0.0733707,-0.394887,0.468257
1.79,-0.182983,0.316471,0.499454,-0.0770694,-0.394005,0.471074
1.795,-0.180517,0.319575,0.500091,-0.080285,-0.392949,0.473234
1.8,-0.1783,0.320962,0.499263,-0.0823658,-0.391191,0.473557
1.805,-0.176461,0.320718,0.497178,-0.0832868,-0.388925,0.472212
1.81,-0.175101,0.319669,0.49477,-0.0834665,-0.38675,0.470217
1.815,-0.173816,0.318918,0.492734,-0.0837743,-0.384833,0.468607
1.82,-0.171783,0.319063,0.490846,-0.0850321,-0.382569,0.467601
1.825,-0.168773,0.319594,0.488367,-0.0870764,-0.3794,0.466476
1.83,-0.164866,0.320777,0.485643,-0.090015,-0.375572,0.465587
1.835,-0.160147,0.323199,0.483346,-0.0941383,-0.371521,0.465659
1.84,-0.154943,0.327352,0.482294,-0.0995403,-0.367909,0.467449
1.845,-0.149586,0.332802,0.482387,-0.10578,-0.36487,0.470649
1.85,-0.144275,0.338242,0.482518,-0.111987,-0.361879,0.473866
1.855,-0.139008,0.343204,0.482212,-0.117892,-0.358661,0.476554
1.86,-0.133469,0.349136,0.482606,-0.124515,-0.355691,0.480206
1.865,-0.127269,0.357232,0.484501,-0.132769,-0.353205,0.485975
1.87,-0.120274,0.366468,0.486742,-0.14214,-0.35046,0.492601
1.875,-0.112386,0.376032,0.488417,-0.152216,-0.346874,0.499089
1.88,-0.103823,0.385566,0.489389,-0.162665,-0.342491,0.505155
1.885,-0.0950096,0.394061,0.48907,-0.172657,-0.337218,0.509876
1.89,-0.0865029,0.400273,0.486776,-0.181155,-0.330983,0.512138
1.895,-0.079041,0.403062,0.482103,-0.187074,-0.323977,0.51105
1.9,-0.0729365,0.402856,0.475793,-0.190479,-0.316809,0.507288
1.905,-0.0678217,0.402605,0.470427,-0.193287,-0.310758,0.504045
1.91,-0.0630597,0.405194,0.468254,-0.197531,-0.306754,0.504285
1.915,-0.0587091,0.409554,0.468263,-0.20256,-0.304247,0.506808
1.92,-0.05531,0.412388,0.467698,-0.206159,-0.301959,0.508117
1.925,-0.0533219,0.412591,0.465913,-0.207424,-0.29978,0.507204
1.93,-0.0530856,0.411819,0.464905,-0.207115,-0.299062,0.506177
1.935,-0.0548063,0.412304,0.467111,-0.206401,-0.301329,0.50773
1.94,-0.058589,0.414779,0.473368,-0.205646,-0.307125,0.512772
1.945,-0.0644563,0.418413,0.482869,-0.204357,-0.315998,0.520355
1.95,-0.0725223,0.422117,0.494639,-0.201839,-0.327451,0.529289
1.955,-0.0826298,0.424492,0.507122,-0.197374,-0.340493,0.537867
1.96,-0.0943569,0.424627,0.518984,-0.190682,-0.354112,0.544794
1.965,-0.107337,0.421889,0.529226,-0.181607,-0.367519,0.549126
1.97,-0.120957,0.416056,0.537013,-0.170375,-0.379879,0.550255
1.975,-0.134279,0.408336,0.542615,-0.158227,-0.390804,0.549031
1.98,-0.146402,0.399959,0.546361,-0.146391,-0.399967,0.546358
1.985,-0.156725,0.391191,0.547916,-0.135369,-0.406825,0.542194
1.99,-0.165161,0.381861,0.547022,-0.125112,-0.411178,0.536291
1.995,-0.171696,0.372048,0.543744,-0.115673,-0.41306,0.528733
2,-0.176565,0.36243,0.538995,-0.107309,-0.413128,0.520438
2.005,-0.179839,0.354529,0.534368,-0.100858,-0.412347,0.513204
2.01,-0.181882,0.348509,0.530391,-0.0962022,-0.411231,0.507433
2.015,-0.183148,0.344256,0.527404,-0.0930162,-0.410237,0.503253
2.02,-0.183567,0.342955,0.526521,-0.0920228,-0.409969,0.501992
2.025,-0.183165,0.345095,0.528261,-0.0934902,-0.410742,0.504232
2.03,-0.182179,0.350026,0.532205,-0.0969068,-0.41245,0.509356
2.035,-0.180932,0.356032,0.536964,-0.101094,-0.414477,0.515571
2.04,-0.179478,0.360986,0.540465,-0.104794,-0.415659,0.520453
2.045,-0.177809,0.363876,0.541685,-0.107426,-0.4154,0.522825
2.05,-0.176049,0.364656,0.540705,-0.108893,-0.413818,0.52271
2.055,-0.174102,0.364196,0.538298,-0.109751,-0.411304,0.521055
2.06,-0.172093,0.364051,0.536144,-0.110827,-0.408901,0.519728
2.065,-0.170381,0.36531,0.535691,-0.112543,-0.40765,0.520193
2.07,-0.169317,0.367892,0.537209,-0.114647,-0.407913,0.52256
2.075,-0.168726,0.371235,0.539961,-0.116918,-0.409161,0.526079
2.08,-0.167917,0.374711,0.542628,-0.119392,-0.410233,0.529626
2.085,-0.166529,0.377206,0.543735,-0.121634,-0.410071,0.531705
2.09,-0.164731,0.377737,0.542468,-0.122979,-0.408301,0.53128
2.095,-0.163023,0.376347,0.53937,-0.123163,-0.405527,0.528689
2.1,-0.161902,0.373437,0.535339,-0.12213,-0.402552,0.524681
2.105,-0.16138,0.369604,0.530984,-0.120218,-0.399737,0.519955
2.11,-0.161185,0.366256,0.527441,-0.118397,-0.397579,0.515976
2.115,-0.161244,0.364009,0.525253,-0.117066,-0.396349,0.513416
2.12,-0.161424,0.362812,0.524235,-0.116271,-0.395865,0.512137
2.125,-0.161721,0.361425,0.523146,-0.115299,-0.395408,0.510707
2.13,-0.162162,0.358542,0.520705,-0.11338,-0.394253,0.507633
2.135,-0.162314,0.354867,0.517181,-0.11117,-0.392306,0.503477
2.14,-0.161988,0.351342,0.51333,-0.109324,-0.389894,0.499218
2.145,-0.161593,0.347956,0.509549,-0.107596,-0.387484,0.495081
2.15,-0.161607,0.344108,0.505715,-0.105367,-0.385279,0.490646
2.155,-0.162047,0.340424,0.502472,-0.102986,-0.38366,0.486646
2.16,-0.162368,0.338122,0.500489,-0.101471,-0.382701,0.484172
2.165,-0.162368,0.336023,0.498391,-0.100259,-0.38149,0.481749
2.17,-0.162048,0.332743,0.494792,-0.0985506,-0.379227,0.477777
2.175,-0.161487,0.328289,0.489776,-0.096303,-0.376007,0.47231
2.18,-0.160863,0.323133,0.483997,-0.0936867,-0.37231,0.465997
2.185,-0.16043,0.318783,0.479213,-0.0914253,-0.369298,0.460723
2.19,-0.160125,0.316299,0.476424,-0.0901671,-0.367512,0.457679
2.195,-0.159706,0.314582,0.474288,-0.0894174,-0.366037,0.455454
2.2,-0.159233,0.311561,0.470794,-0.0879469,-0.363746,0.451693
2.205,-0.159034,0.307624,0.466658,-0.0857882,-0.361244,0.447032
2.21,-0.159308,0.304381,0.463688,-0.0837579,-0.359687,0.443444
2.215,-0.159837,0.302109,0.461946,-0.0821408,-0.358986,0.441127
2.22,-0.160271,0.300726,0.460997,-0.0810921,-0.358689,0.439781
2.225,-0.160426,0.299483,0.459909,-0.0802844,-0.358151,0.438435
2.23,-0.160275,0.298163,0.458438,-0.0796095,-0.357214,0.436823
2.235,-0.160216,0.296657,0.456873,-0.0787744,-0.356277,0.435051
2.24,-0.160599,0.294128,0.454726,-0.077093,-0.355258,0.432351
2.245,-0.161217,0.289193,0.45041,-0.0738873,-0.353123,0.42701
2.25,-0.161545,0.282853,0.444398,-0.0700368,-0.349841,0.419878
2.255,-0.161543,0.277135,0.438678,-0.0667374,-0.346538,0.413275
2.26,-0.161211,0.272915,0.434126,-0.0644926,-0.343718,0.40821
2.265,-0.160456,0.270016,0.430472,-0.0632548,-0.341172,0.404427
2.27,-0.159425,0.26822,0.427645,-0.0628127,-0.338945,0.401757
2.275,-0.158421,0.266641,0.425062,-0.0624813,-0.336874,0.399355
2.28,-0.157254,0.264862,0.422116,-0.0621277,-0.334499,0.396627
2.285,-0.155673,0.263229,0.418902,-0.0620974,-0.331731,0.393828
2.29,-0.153878,0.261504,0.415382,-0.0621377,-0.328663,0.3908
2.295,-0.152299,0.258694,0.410993,-0.0614267,-0.325217,0.386643
2.3,-0.151154,0.254566,0.405719,-0.0597048,-0.321511,0.381216
2.305,-0.150613,0.249325,0.399938,-0.0569917,-0.31786,0.374852
2.31,-0.150795,0.24421,0.395005,-0.053933,-0.315117,0.36905
2.315,-0.151359,0.241477,0.392835,-0.0520296,-0.314191,0.36622
2.32,-0.151563,0.242079,0.393642,-0.0522599,-0.314774,0.367034
2.325,-0.150929,0.244646,0.395575,-0.0541072,-0.315524,0.369632
2.33,-0.14955,0.246692,0.396242,-0.0560848,-0.315113,0.371198
2.335,-0.14791,0.24676,0.39467,-0.0570709,-0.313259,0.370329
2.34,-0.146249,0.24579,0.392039,-0.0574702,-0.31078,0.368251
2.345,-0.144604,0.246764,0.391369,-0.0589822,-0.309444,0.368426
2.35,-0.1434,0.251593,0.394993,-0.0624655,-0.310841,0.373307
2.355,-0.143033,0.260425,0.403458,-0.0677764,-0.315516,0.383293
2.36,-0.143396,0.27187,0.415266,-0.0741741,-0.322544,0.396718
2.365,-0.144217,0.283773,0.42799,-0.080573,-0.330363,0.410936
2.37,-0.144922,0.294168,0.43909,-0.0861671,-0.33718,0.423347
2.375,-0.144486,0.30347,0.447956,-0.0917889,-0.342046,0.433835
2.38,-0.142058,0.313869,0.455927,-0.0991951,-0.345247,0.444442
2.385,-0.138238,0.326133,0.464372,-0.108481,-0.347917,0.456398
2.39,-0.134794,0.33923,0.474024,-0.118032,-0.351501,0.469532
2.395,-0.132931,0.352281,0.485212,-0.126642,-0.356885,0.483527
2.4,-0.132286,0.363987,0.496273,-0.133773,-0.362898,0.496671
2.405,-0.131294,0.372268,0.503562,-0.139126,-0.366534,0.50566
2.41,-0.128873,0.374549,0.503422,-0.141841,-0.365056,0.506897
2.415,-0.12501,0.368084,0.493094,-0.140339,-0.356862,0.497201
2.42,-0.121081,0.352079,0.473161,-0.133367,-0.343086,0.476452
2.425,-0.118738,0.329703,0.448442,-0.121801,-0.327461,0.449262
2.43,-0.118693,0.30408,0.422773,-0.107034,-0.312616,0.419649
2.435,-0.120712,0.277131,0.397842,-0.0903085,-0.299387,0.389695
2.44,-0.123844,0.25066,0.374504,-0.0732171,-0.287721,0.360938
2.445,-0.126971,0.226794,0.353766,-0.0576328,-0.277553,0.335186
2.45,-0.129464,0.206994,0.336458,-0.0447617,-0.269,0.313762
2.455,-0.130898,0.191619,0.322517,-0.0350576,-0.261779,0.296836
2.46,-0.130954,0.180963,0.311917,-0.0288728,-0.255692,0.284564
2.465,-0.129862,0.173649,0.303511,-0.0252805,-0.250208,0.275488
2.47,-0.128351,0.167647,0.295999,-0.0226875,-0.244999,0.267686
2.475,-0.125979,0.162057,0.288037,-0.0208296,-0.239032,0.259862
2.48,-0.120011,0.158188,0.278199,-0.0220418,-0.229906,0.251948
2.485,-0.106424,0.162049,0.268473,-0.0321155,-0.216446,0.248562
2.49,-0.0807788,0.184947,0.265726,-0.0601417,-0.200055,0.260196
2.495,-0.0444383,0.24291,0.287348,-0.114587,-0.191557,0.306144
2.5,-0.0100008,0.353731,0.363732,-0.198453,-0.215774,0.414227
2.505,0.0065877,0.529473,0.522885,-0.309495,-0.298084,0.607579
2.51,-0.00496968,0.758362,0.763331,-0.434971,-0.443579,0.878549
2.515,-0.0482972,0.98658,1.03488,-0.541718,-0.625371,1.16709
2.52,-0.117844,1.13366,1.25151,-0.586483,-0.790595,1.37708
2.525,-0.199154,1.14198,1.34114,-0.544343,-0.889288,1.43363
2.53,-0.272427,1.01611,1.28853,-0.429364,-0.90122,1.33058
2.535,-0.320134,0.815302,1.13544,-0.285885,-0.840373,1.12626
2.54,-0.332956,0.610615,0.943571,-0.160306,-0.737003,0.897309
2.545,-0.312695,0.445059,0.757754,-0.0764202,-0.618024,0.694444
2.55,-0.270867,0.329115,0.599982,-0.0336294,-0.502785,0.536414
2.555,-0.221383,0.255178,0.47656,-0.0195115,-0.402957,0.422469
2.56,-0.175264,0.209511,0.384776,-0.0197725,-0.323339,0.343112
2.565,-0.13924,0.178993,0.318233,-0.0229514,-0.264122,0.287074
2.57,-0.115306,0.156851,0.272158,-0.0239859,-0.223702,0.247688
2.575,-0.101361,0.141514,0.242875,-0.023182,-0.198745,0.221927
2.58,-0.0934756,0.13244,0.225915,-0.022496,-0.1844,0.206896
2.585,-0.088369,0.128112,0.216481,-0.0229458,-0.176005,0.198951
2.59,-0.084497,0.126405,0.210902,-0.0241958,-0.170549,0.194745
2.595,-0.0814653,0.125694,0.20716,-0.0255356,-0.166638,0.192173
2.6,-0.079011,0.125663,0.204674,-0.0269343,-0.163785,0.19072
2.605,-0.076866,0.126191,0.203057,-0.0284779,-0.161614,0.190092
2.61,-0.0749175,0.128022,0.202939,-0.0306597,-0.160421,0.19108
2.615,-0.0731755,0.130553,0.203729,-0.0331272,-0.159871,0.192998
2.62,-0.0712191,0.131755,0.202974,-0.0349502,-0.158305,0.193255
2.625,-0.0689361,0.130305,0.199241,-0.0354316,-0.154832,0.190264
2.63,-0.066769,0.126801,0.19357,-0.0346592,-0.150306,0.184966
2.635,-0.0648704,0.123865,0.188736,-0.0340605,-0.146419,0.18048
2.64,-0.0628846,0.12429,0.187174,-0.0354522,-0.144371,0.179824
2.645,-0.060719,0.128123,0.188842,-0.0389159,-0.144084,0.183
2.65,-0.0582064,0.134393,0.192599,-0.0439864,-0.144803,0.188789
2.655,-0.0552119,0.141868,0.19708,-0.0500309,-0.145661,0.195691
2.66,-0.0517,0.148525,0.200225,-0.0559017,-0.145449,0.20135
2.665,-0.0480557,0.152458,0.200513,-0.0602765,-0.143511,0.203788
2.67,-0.0444221,0.153733,0.198155,-0.0631109,-0.140052,0.203163
2.675,-0.0405173,0.1546,0.195117,-0.0658656,-0.136044,0.201909
2.68,-0.035918,0.156753,0.192671,-0.0697642,-0.131976,0.20174
2.685,-0.0304073,0.160011,0.190419,-0.0748268,-0.127494,0.202321
2.69,-0.0240211,0.162938,0.186959,-0.0802034,-0.121809,0.202013
2.695,-0.0169708,0.165315,0.182286,-0.0856464,-0.115041,0.200687
2.7,-0.00933272,0.168004,0.177336,-0.0916087,-0.107773,0.199382
2.705,-0.00113532,0.17126,0.172395,-0.0982212,-0.100188,0.198409
2.71,0.00740937,0.175049,0.16764,-0.105342,-0.0925089,0.197851
2.715,0.0153242,0.178053,0.162728,-0.111646,-0.0851038,0.19675
2.72,0.0216848,0.17878,0.157095,-0.115738,-0.078179,0.193917
2.725,0.0263409,0.177006,0.150665,-0.117402,-0.0717784,0.18918
2.73,0.0299139,0.175328,0.145414,-0.118496,-0.066684,0.18518
2.735,0.0330017,0.176392,0.143391,-0.120894,-0.0637331,0.184627
2.74,0.035765,0.179136,0.143371,-0.124073,-0.0621265,0.1862
2.745,0.0378595,0.181267,0.143408,-0.126513,-0.0609384,0.187451
2.75,0.0393439,0.182699,0.143355,-0.128197,-0.0600511,0.188248
2.755,0.0401004,0.184162,0.144061,-0.129478,-0.0600218,0.189499
2.76,0.0397757,0.186497,0.146721,-0.130638,-0.0617449,0.192383
2.765,0.0381159,0.190298,0.152182,-0.131875,-0.0658562,0.197731
2.77,0.0345181,0.194921,0.160403,-0.132467,-0.0726797,0.205146
2.775,0.0284683,0.199265,0.170797,-0.131482,-0.0821734,0.213655
2.78,0.0198738,0.202277,0.182404,-0.128259,-0.0938366,0.222096
2.785,0.00885572,0.203137,0.194281,-0.122394,-0.107055,0.229449
2.79,-0.00399326,0.20164,0.205633,-0.114111,-0.121028,0.235139
2.795,-0.0176294,0.198622,0.216251,-0.104496,-0.135031,0.239527
2.8,-0.0310837,0.194813,0.225896,-0.0945288,-0.148367,0.242896
2.805,-0.0435246,0.18957,0.233094,-0.0843192,-0.159706,0.244025
2.81,-0.0546775,0.182098,0.236776,-0.0735665,-0.168271,0.241837
2.815,-0.0641502,0.173589,0.23774,-0.0631846,-0.174296,0.237481
2.82,-0.0717301,0.165116,0.236846,-0.0539165,-0.178157,0.232073
2.825,-0.0777433,0.156738,0.234481,-0.0456077,-0.180263,0.225871
2.83,-0.0823981,0.149009,0.231407,-0.038458,-0.181176,0.219634
2.835,-0.0858317,0.142176,0.228008,-0.0325304,-0.181195,0.213726
2.84,-0.0884286,0.136195,0.224624,-0.027578,-0.180741,0.208319
2.845,-0.0901523,0.131648,0.2218,-0.0239574,-0.180106,0.204063
2.85,-0.0905557,0.128545,0.219101,-0.021933,-0.17878,0.200713
2.855,-0.0897206,0.12657,0.216291,-0.021275,-0.176676,0.197951
2.86,-0.0883367,0.126128,0.214465,-0.021819,-0.174823,0.196642
2.865,-0.0871144,0.126898,0.214013,-0.0229693,-0.173856,0.196825
2.87,-0.0861546,0.127592,0.213746,-0.0239238,-0.173148,0.197072
2.875,-0.0850656,0.128448,0.213513,-0.0250466,-0.172385,0.197431
2.88,-0.0834483,0.131146,0.214594,-0.0275384,-0.172075,0.199613
2.885,-0.0812623,0.135791,0.217053,-0.0314819,-0.172232,0.203714
2.89,-0.0789256,0.140271,0.219197,-0.0354177,-0.172121,0.207539
2.895,-0.0768964,0.142819,0.219715,-0.0380603,-0.171249,0.209309
2.9,-0.0753542,0.143764,0.219118,-0.0394962,-0.170013,0.20951
2.905,-0.0740125,0.144495,0.218507,-0.0406928,-0.168886,0.209579
2.91,-0.0725413,0.145133,0.217675,-0.0419111,-0.167556,0.209467
2.915,-0.0710086,0.144693,0.215701,-0.0425416,-0.165532,0.208073
2.92,-0.0696003,0.143699,0.2133,-0.042781,-0.163332,0.206113
2.925,-0.0684292,0.142886,0.211315,-0.0429875,-0.16151,0.204498
2.93,-0.0675458,0.142281,0.209827,-0.0431483,-0.160141,0.203289
2.935,-0.0666226,0.141981,0.208604,-0.0435083,-0.158902,0.20241
2.94,-0.0656886,0.141315,0.207004,-0.0436631,-0.157439,0.201102
2.945,-0.0649484,0.139636,0.204584,-0.0431209,-0.155615,0.198736
2.95,-0.064551,0.137175,0.201726,-0.0419297,-0.153735,0.195665
2.955,-0.0642446,0.135011,0.199256,-0.0408571,-0.152132,0.192989
2.96,-0.063839,0.133127,0.196966,-0.0400034,-0.150576,0.190579
2.965,-0.0631236,0.131998,0.195122,-0.0397648,-0.149098,0.188863
2.97,-0.0622437,0.131436,0.19368,-0.0399482,-0.147757,0.187706
2.975,-0.0618452,0.130322,0.192168,-0.0395353,-0.146654,0.18619
2.98,-0.0622822,0.128976,0.191258,-0.0385058,-0.146382,0.184887
2.985,-0.0633929,0.12749,0.190883,-0.0370064,-0.146806,0.183812
2.99,-0.0646418,0.125846,0.190488,-0.035336,-0.147299,0.182635
2.995,-0.0654262,0.124763,0.19019,-0.0342582,-0.14758,0.181838
3,-0.0656956,0.124049,0.189745,-0.0336904,-0.147478,0.181169
3.005,-0.0659325,0.122324,0.188256,-0.0325573,-0.146756,0.179313
3.01,-0.0667157,0.118274,0.184989,-0.0297669,-0.145322,0.175089
3.015,-0.0678002,0.112429,0.180229,-0.0257662,-0.143199,0.168966
3.02,-0.0686145,0.107031,0.175646,-0.0221798,-0.141024,0.163203
3.025,-0.0689658,0.103868,0.172834,-0.020151,-0.139603,0.159754
3.03,-0.0692214,0.10246,0.171682,-0.0191906,-0.139085,0.158276
3.035,-0.0695607,0.10097,0.17053,-0.0181339,-0.138617,0.156751
3.04,-0.0695777,0.0976767,0.167254,-0.0162229,-0.136735,0.152958
3.045,-0.069183,0.092066,0.161249,-0.0132115,-0.13304,0.146251
3.05,-0.0686007,0.0851118,0.153712,-0.00953266,-0.128353,0.137885
3.055,-0.067884,0.0785644,0.146448,-0.00616636,-0.123745,0.129911
3.06,-0.0673144,0.0733776,0.140692,-0.00350058,-0.120093,0.123593
3.065,-0.067243,0.069244,0.136487,-0.00115529,-0.117624,0.118779
3.07,-0.0676489,0.0655299,0.133179,0.00122342,-0.115948,0.114724
3.075,-0.0678236,0.0626449,0.130468,0.00298988,-0.114484,0.111494
3.08,-0.0671415,0.0613412,0.128483,0.00334881,-0.112944,0.109595
3.085,-0.065865,0.0616037,0.127469,0.00246021,-0.111621,0.109161
3.09,-0.0646441,0.0625496,0.127194,0.00120929,-0.110758,0.109548
3.095,-0.0640954,0.0636033,0.127699,0.00028415,-0.110732,0.110448
3.1,-0.0642295,0.0643468,0.128576,-6.77E-05,-0.111316,0.111384
3.105,-0.0642534,0.0652299,0.129483,-0.000563767,-0.111854,0.112418
3.11,-0.0637078,0.0666832,0.130391,-0.00171782,-0.112063,0.113781
3.115,-0.0628616,0.067142,0.130004,-0.00247126,-0.111351,0.113822
3.12,-0.0623042,0.0648625,0.127167,-0.00147702,-0.109391,0.110868
3.125,-0.0620713,0.0616347,0.123706,0.00025206,-0.107258,0.107006
3.13,-0.0613182,0.0616312,0.122949,-0.000180691,-0.106387,0.106568
3.135,-0.0598086,0.0660852,0.125894,-0.00362379,-0.107215,0.110839
3.14,-0.058188,0.073647,0.131835,-0.00892524,-0.10971,0.118635
3.145,-0.0568961,0.0828755,0.139772,-0.0149992,-0.113546,0.128545
3.15,-0.0558776,0.0933911,0.149269,-0.0216584,-0.118441,0.1401
3.155,-0.0551993,0.103563,0.158762,-0.0279229,-0.123531,0.151454
3.16,-0.0549138,0.112424,0.167338,-0.0332036,-0.128317,0.161521
3.165,-0.0546379,0.120893,0.175531,-0.0382523,-0.132888,0.17114
3.17,-0.0537737,0.129881,0.183655,-0.0439404,-0.137079,0.18102
3.175,-0.0523017,0.140164,0.192465,-0.050727,-0.141316,0.192043
3.18,-0.050849,0.152399,0.203248,-0.0586299,-0.146703,0.205333
3.185,-0.049872,0.164668,0.21454,-0.0662774,-0.152658,0.218936
3.19,-0.0486414,0.174187,0.222828,-0.0724835,-0.156733,0.229216
3.195,-0.046347,0.179031,0.225378,-0.0766049,-0.15688,0.233485
3.2,-0.0430581,0.176788,0.219846,-0.0772088,-0.151788,0.228996
3.205,-0.0393295,0.165444,0.204773,-0.0728121,-0.140933,0.213745
3.21,-0.0360487,0.145762,0.181811,-0.0633429,-0.125781,0.189124
3.215,-0.03407,0.120098,0.154168,-0.0496685,-0.108679,0.158348
3.22,-0.033988,0.0908772,0.124865,-0.032845,-0.0917139,0.124559
3.225,-0.0352869,0.0626312,0.0979181,-0.0157872,-0.0769059,0.0926931
3.23,-0.0369641,0.0378156,0.0747796,-0.000491618,-0.0645152,0.0650069
3.235,-0.0384508,0.0165109,0.0549617,0.012667,-0.0539318,0.0412647
3.24,-0.0397199,-0.000373917,0.039346,0.0231482,-0.0456487,0.0225005
3.245,-0.0409178,-0.0121329,0.0287849,0.0306289,-0.0402429,0.00961401
3.25,-0.0418636,-0.0194563,0.0224073,0.035403,-0.0371068,0.00170376
3.255,-0.0422451,-0.0235098,0.0187353,0.0379636,-0.035207,-0.00275653
3.26,-0.0418053,-0.0266561,0.0151492,0.0395262,-0.0328827,-0.00664347
3.265,-0.0393045,-0.03196,0.00734449,0.0411446,-0.0269328,-0.0142118
3.27,-0.0320243,-0.0364629,-0.00443855,0.0395411,-0.0159267,-0.0236144
3.275,-0.0165023,-0.0295816,-0.0130793,0.0266066,-0.0019763,-0.0246303
3.28,0.0102899,0.00475964,-0.0055303,-0.00868888,0.00913382,-0.000444943
3.285,0.0447803,0.0842168,0.0394365,-0.0744765,0.00308526,0.0713913
3.29,0.0732321,0.22292,0.149688,-0.170984,-0.044142,0.215126
3.295,0.080165,0.426467,0.346302,-0.292504,-0.153654,0.446158
3.3,0.0564809,0.674121,0.61764,-0.421813,-0.323985,0.745798
3.305,0.00267661,0.902873,0.900197,-0.522819,-0.518183,1.041
3.31,-0.0701869,1.02777,1.09796,-0.55286,-0.674427,1.22729
3.315,-0.144966,0.997609,1.14257,-0.492273,-0.743362,1.23563
3.32,-0.203728,0.832607,1.03633,-0.363083,-0.71595,1.07903
3.325,-0.234428,0.605715,0.840143,-0.214363,-0.620403,0.834766
3.33,-0.233695,0.391775,0.62547,-0.0912675,-0.496039,0.587307
3.335,-0.20672,0.231521,0.438241,-0.0143186,-0.372368,0.386687
3.34,-0.164743,0.131109,0.295852,0.0194188,-0.265924,0.246506
3.345,-0.119595,0.0760688,0.195663,0.0251297,-0.182014,0.156885
3.35,-0.0793387,0.0471949,0.126534,0.0185582,-0.11886,0.100302
3.355,-0.0479773,0.0304766,0.0784539,0.010104,-0.0729951,0.0628911
3.36,-0.0264784,0.0178094,0.0442878,0.00500506,-0.0408569,0.0358519
3.365,-0.0137563,0.00528571,0.019042,0.00489051,-0.0189361,0.0140456
3.37,-0.00700456,-0.00668439,0.000320167,0.00790332,-0.00422893,-0.00367439
3.375,-0.00322506,-0.0162532,-0.0130281,0.0112458,0.00565979,-0.0169055
3.38,-0.000378135,-0.022142,-0.0217639,0.013002,0.0123471,-0.0253491
3.385,0.00244973,-0.0232701,-0.0257199,0.0120207,0.0162637,-0.0282844
3.39,0.00512799,-0.020222,-0.0253499,0.0087145,0.0175964,-0.0263109
3.395,0.00729078,-0.01622,-0.0235108,0.00515528,0.0177833,-0.0229386
3.4,0.00886954,-0.0146444,-0.023514,0.00333413,0.0186966,-0.0220307
3.405,0.0101187,-0.0156597,-0.0257783,0.0031991,0.0207251,-0.0239242
3.41,0.0114384,-0.0159945,-0.0274329,0.00263044,0.0224424,-0.0250728
3.415,0.0130204,-0.0133961,-0.0264165,0.000216935,0.0227688,-0.0229858
3.42,0.0144915,-0.00923749,-0.023729,-0.00303342,0.0220666,-0.0190332
3.425,0.0159257,-0.00484181,-0.0207675,-0.00639927,0.0211848,-0.0147855
3.43,0.0178094,-0.000663835,-0.0184733,-0.00989901,0.0209478,-0.0110488
3.435,0.0201151,0.00221751,-0.0178976,-0.0128937,0.0219466,-0.0090529
3.44,0.0227832,0.00367185,-0.0191113,-0.0152738,0.0241878,-0.00891398
3.445,0.0259204,0.00538986,-0.0205306,-0.018077,0.0268185,-0.0087415
3.45,0.0294603,0.00857886,-0.0208815,-0.0219619,0.0290648,-0.00710291
3.455,0.0332409,0.0128276,-0.0204133,-0.0265977,0.0309772,-0.00437958
3.46,0.0371382,0.0160147,-0.0211235,-0.0306878,0.0336374,-0.00294956
3.465,0.0411482,0.0172115,-0.0239366,-0.033694,0.0375767,-0.00388274
3.47,0.0455455,0.018699,-0.0268464,-0.0370916,0.0417955,-0.0047039
3.475,0.050612,0.0227699,-0.0278421,-0.042367,0.0452955,-0.00292846
3.48,0.0562952,0.0293117,-0.0269834,-0.0494251,0.0480809,0.00134423
3.485,0.0626731,0.0374406,-0.0252325,-0.0578006,0.0507523,0.00704832
3.49,0.069683,0.0453275,-0.0243555,-0.0664013,0.0542932,0.0121082
3.495,0.0770539,0.0507051,-0.0263488,-0.0737616,0.0596995,0.0140621
3.5,0.0844299,0.0539203,-0.0305096,-0.0798765,0.0663603,0.0135162
3.505,0.091666,0.0567684,-0.0348976,-0.0856986,0.0730715,0.0126271
3.51,0.0985723,0.0594616,-0.0391107,-0.0912409,0.0794913,0.0117496
3.515,0.104881,0.061522,-0.0433592,-0.0960729,0.0855866,0.0104863
3.52,0.110101,0.0626543,-0.0474463,-0.09974,0.0909597,0.00878031
3.525,0.114025,0.0626113,-0.0514138,-0.101981,0.0955161,0.00646488
3.53,0.116755,0.0612246,-0.0555308,-0.102757,0.0994695,0.0032873
3.535,0.118275,0.0587806,-0.0594944,-0.102223,0.102635,-0.000412105
3.54,0.118432,0.0561481,-0.0622844,-0.100794,0.104337,-0.00354279
3.545,0.11713,0.0537668,-0.0633636,-0.0986675,0.104208,-0.00554072
3.55,0.114487,0.0524242,-0.0620631,-0.0963663,0.101931,-0.005565
3.555,0.110472,0.0525704,-0.0579021,-0.0941328,0.0972111,-0.00307829
3.56,0.104826,0.0536449,-0.0511816,-0.0914934,0.0900712,0.00142218
3.565,0.097401,0.0541608,-0.0432403,-0.0875042,0.0811992,0.00630495
3.57,0.0882815,0.0530096,-0.0352718,-0.0815744,0.0713335,0.0102409
3.575,0.0777441,0.0504001,-0.027344,-0.073984,0.0606726,0.0133115
3.58,0.0660394,0.0475367,-0.0185027,-0.0655732,0.0488104,0.0167628
3.585,0.053602,0.0438259,-0.00977614,-0.05625,0.0365914,0.0196586
3.59,0.0410794,0.0364609,-0.00461854,-0.0447679,0.0263837,0.0183842
3.595,0.0295117,0.0244891,-0.0050226,-0.0311773,0.0199383,0.011239
3.6,0.0199017,0.0110962,-0.0088055,-0.0178967,0.0165741,0.00132256
3.605,0.0124845,-0.000186614,-0.0126711,-0.00710018,0.0145236,-0.0074234
3.61,0.00684085,-0.00903185,-0.0158727,0.00126497,0.0131137,-0.0143786
3.615,0.00236846,-0.0166192,-0.0189877,0.00822766,0.01233,-0.0205576
3.62,-0.00142661,-0.0234689,-0.0220423,0.0143734,0.0119025,-0.0262759
3.625,-0.00460734,-0.0291156,-0.0245083,0.01947,0.0114898,-0.0309598
3.63,-0.0069471,-0.0332252,-0.0262781,0.0231935,0.0111607,-0.0343542
3.635,-0.00824984,-0.0356094,-0.0273596,0.0253222,0.011033,-0.0363552
3.64,-0.00883167,-0.0359977,-0.027166,0.0258822,0.0105853,-0.0364675
3.645,-0.00925304,-0.0349963,-0.0257433,0.0255474,0.00952065,-0.035068
3.65,-0.00971713,-0.0338436,-0.0241264,0.0251498,0.00831922,-0.033469
3.655,-0.00994236,-0.0324373,-0.0224949,0.0244679,0.00724722,-0.0317151
3.66,-0.00984246,-0.0299658,-0.0201234,0.0229833,0.00593568,-0.028919
3.665,-0.00950655,-0.0266764,-0.0171698,0.0208902,0.00442439,-0.0253146
3.67,-0.00895346,-0.0238294,-0.014876,0.0189272,0.00341937,-0.0223466
3.675,-0.00786127,-0.0220897,-0.0142285,0.0172922,0.0036761,-0.0209683
3.68,-0.006074,-0.0208407,-0.0147667,0.0155392,0.00501871,-0.0205579
3.685,-0.00431817,-0.0195535,-0.0152353,0.0137823,0.00630302,-0.0200853
3.69,-0.00308999,-0.0182979,-0.015208,0.0123483,0.00699631,-0.0193446
3.695,-0.00212577,-0.0167202,-0.0145945,0.0108807,0.0071988,-0.0180795
3.7,-0.00139483,-0.0142895,-0.0128947,0.00905536,0.00663945,-0.0156948
3.705,-0.00121238,-0.0104957,-0.00928331,0.00675965,0.00465975,-0.0114194
3.71,-0.00138348,-0.00547538,-0.0040919,0.00395996,0.0015637,-0.00552366
3.715,-0.00111571,-0.00084586,0.000269853,0.00113251,-0.000799956,-0.000332557
3.72,0.000125649,0.00260976,0.00248412,-0.00157929,-0.00136166,0.00294095
3.725,0.0019515,0.0049787,0.0030272,-0.00400116,-0.000621052,0.00462221
3.73,0.00331109,0.00555051,0.00223942,-0.00511625,0.000618734,0.00449751
3.735,0.00358763,0.00389635,0.000308724,-0.00432088,0.00189308,0.0024278
3.74,0.00317642,0.00179912,-0.0013773,-0.00287262,0.00262909,0.000243533
3.745,0.00262952,0.000719222,-0.0019103,-0.0019334,0.00262107,-0.000687669
3.75,0.00215334,-0.000110705,-0.00226405,-0.00117932,0.00255038,-0.00137106
3.755,0.00168473,-0.00219481,-0.00387954,0.000294492,0.00321253,-0.00350702
3.76,0.00106453,-0.00541123,-0.00647576,0.00250957,0.00435338,-0.00686295
3.765,0.000240213,-0.00818719,-0.0084274,0.00458819,0.00500425,-0.00959243
3.77,-0.000674732,-0.00946461,-0.00878987,0.00585395,0.00468528,-0.0105392
3.775,-0.00187447,-0.01047,-0.00859556,0.00712709,0.00388042,-0.0110075
3.78,-0.00331689,-0.012617,-0.00930008,0.00919942,0.0034544,-0.0126538
3.785,-0.00474233,-0.0155567,-0.0108143,0.0117196,0.00350567,-0.0152253
3.79,-0.00598505,-0.0179343,-0.0119493,0.0138098,0.00344345,-0.0172533
3.795,-0.00682871,-0.0185018,-0.0116731,0.0146246,0.00279689,-0.0174215
3.8,-0.00710642,-0.0181852,-0.0110788,0.0146021,0.00229345,-0.0168956
3.805,-0.00742745,-0.0193608,-0.0119334,0.0154662,0.00260149,-0.0180677
3.81,-0.00815411,-0.0218316,-0.0136775,0.0173123,0.00318894,-0.0205012
3.815,-0.00878471,-0.0246721,-0.0158874,0.0193163,0.00410073,-0.023417
3.82,-0.00906348,-0.0277043,-0.0186409,0.0212279,0.0055295,-0.0267574
3.825,-0.00935938,-0.0308278,-0.0214685,0.0232021,0.00699118,-0.0301933
3.83,-0.00987649,-0.0339883,-0.0241118,0.0253254,0.00821878,-0.0335441
3.835,-0.010429,-0.0373553,-0.0269263,0.0275882,0.00952472,-0.037113
3.84,-0.0110614,-0.0411128,-0.0300514,0.0301228,0.0109639,-0.0410866
3.845,-0.0120429,-0.0446129,-0.03257,0.0327102,0.0118513,-0.0445616
3.85,-0.0133089,-0.0465829,-0.033274,0.0345785,0.0115268,-0.0461053
3.855,-0.0143836,-0.046758,-0.0323744,0.0353001,0.010387,-0.0456871
3.86,-0.0147709,-0.0459463,-0.0311754,0.0350551,0.00947111,-0.0445262
3.865,-0.0146652,-0.0455115,-0.0308464,0.034743,0.00934221,-0.0440852
3.87,-0.0145049,-0.0460318,-0.0315269,0.0349509,0.00982762,-0.0447785
3.875,-0.0143953,-0.046521,-0.0321257,0.0351701,0.0102366,-0.0454067
3.88,-0.0144329,-0.0458271,-0.0313942,0.0347911,0.00979257,-0.0445837
3.885,-0.0144062,-0.0433296,-0.0289234,0.0333338,0.00838145,-0.0417152
3.89,-0.0141525,-0.0383519,-0.0241994,0.0303134,0.00580057,-0.036114
3.895,-0.0139511,-0.0305845,-0.0166333,0.0257126,0.00154857,-0.0272612
3.9,-0.0140246,-0.0204342,-0.00640956,0.0198948,-0.00439656,-0.0154982
3.905,-0.0144497,-0.00842932,0.00602035,0.0132092,-0.0118184,-0.00139082
3.91,-0.0151759,0.00463701,0.0198129,0.00608461,-0.0202008,0.0141162
3.915,-0.0161036,0.0176646,0.0337683,-0.000901235,-0.0287936,0.0296948
3.92,-0.0168955,0.0305329,0.0474285,-0.00787356,-0.0371375,0.045011
3.925,-0.0168194,0.0440271,0.0608465,-0.0157084,-0.0448404,0.0605488
3.93,-0.0154845,0.0589712,0.0744557,-0.025107,-0.0519269,0.077034
3.935,-0.0133886,0.0753643,0.0887529,-0.0357817,-0.0589714,0.0947531
3.94,-0.0117455,0.0923655,0.104111,-0.046546,-0.0668898,0.113436
3.945,-0.0113538,0.108856,0.120209,-0.0562928,-0.075958,0.132251
3.95,-0.0115157,0.123002,0.134518,-0.0643667,-0.0843124,0.148679
3.955,-0.0109034,0.13242,0.143323,-0.0701576,-0.0890428,0.1592
3.96,-0.00876902,0.134955,0.143724,-0.0728533,-0.0880417,0.160895
3.965,-0.00525572,0.12893,0.134186,-0.0714032,-0.0805064,0.15191
3.97,-0.00133357,0.114483,0.115817,-0.0653271,-0.0676369,0.132964
3.975,0.00153048,0.0939479,0.0924174,-0.0551245,-0.0524736,0.107598
3.98,0.00194388,0.0686324,0.0666885,-0.0407472,-0.0373803,0.0781275
3.985,-0.000239777,0.0411485,0.0413883,-0.0236187,-0.024034,0.0476526
3.99,-0.00412712,0.0156404,0.0197675,-0.00664717,-0.0137955,0.0204427
3.995,-0.0084195,-0.00460399,0.00381551,0.00751911,-0.00706388,-0.000455232
4,-0.0118618,-0.0182289,-0.00636709,0.0173729,-0.00317236,-0.0142005
4.005,-0.0138048,-0.0260987,-0.0122939,0.0230383,-0.000872295,-0.022166
4.01,-0.0140766,-0.0300586,-0.015982,0.0254815,0.00110011,-0.0265816
4.015,-0.0132017,-0.0315445,-0.0183429,0.0258342,0.00296828,-0.0288025
4.02,-0.0120455,-0.031293,-0.0192475,0.0250215,0.00415804,-0.0291795
4.025,-0.0100848,-0.0297167,-0.0196319,0.0229794,0.00551198,-0.0284914
4.03,-0.0048195,-0.0254689,-0.0206494,0.017487,0.00913939,-0.0266264
4.035,0.00713231,-0.0124986,-0.0196309,0.0030982,0.0154517,-0.0185499
4.04,0.0294206,0.0219088,-0.00751177,-0.029635,0.0213229,0.00831212
4.045,0.0601095,0.0934231,0.0333136,-0.0886421,0.0154706,0.0731715
4.05,0.087193,0.218025,0.130832,-0.176218,-0.0251952,0.201413
4.055,0.0958305,0.406606,0.310775,-0.290082,-0.124098,0.41418
4.06,0.0768104,0.645634,0.568824,-0.417103,-0.284064,0.701167
4.065,0.0286352,0.878489,0.849854,-0.523728,-0.474131,0.997859
4.07,-0.0408939,1.02338,1.06427,-0.567236,-0.638066,1.2053
4.075,-0.117573,1.02511,1.14268,-0.523966,-0.727608,1.25157
4.08,-0.183801,0.895136,1.07894,-0.41069,-0.729041,1.13973
4.085,-0.224267,0.698124,0.92239,-0.273582,-0.662022,0.935604
4.09,-0.231736,0.503319,0.735055,-0.156799,-0.558177,0.714975
4.095,-0.208746,0.34939,0.558135,-0.0812008,-0.442759,0.523959
4.1,-0.165986,0.243664,0.409649,-0.0448474,-0.332343,0.37719
4.105,-0.116915,0.177724,0.294638,-0.035108,-0.23761,0.272718
4.11,-0.0724075,0.139287,0.211695,-0.0386129,-0.164026,0.202639
4.115,-0.0382211,0.117933,0.156154,-0.0460216,-0.112222,0.158244
4.12,-0.0152911,0.10682,0.122111,-0.0528442,-0.0793291,0.132173
4.125,-0.00173978,0.101506,0.103246,-0.0575999,-0.0606133,0.118213
4.13,0.00527404,0.0987914,0.0935174,-0.0600822,-0.0509473,0.111029
4.135,0.00865158,0.0979614,0.0893099,-0.061553,-0.0465681,0.108121
4.14,0.0104685,0.0987121,0.0882436,-0.0630355,-0.0449034,0.107939
4.145,0.0119149,0.1013,0.0893848,-0.0653644,-0.0447273,0.110092
4.15,0.0134959,0.105951,0.0924553,-0.0689627,-0.0455872,0.11455
4.155,0.0152158,0.111486,0.0962699,-0.0731511,-0.0467965,0.119948
4.16,0.0170233,0.117804,0.100781,-0.0778425,-0.0483574,0.1262
4.165,0.0189801,0.125798,0.106818,-0.0835879,-0.0507133,0.134301
4.17,0.0209304,0.135266,0.114336,-0.0901801,-0.0539276,0.144108
4.175,0.0227146,0.145018,0.122304,-0.0968407,-0.0574979,0.154339
4.18,0.0244255,0.153369,0.128944,-0.10265,-0.0603437,0.162994
4.185,0.0261582,0.160303,0.134144,-0.107653,-0.0623459,0.169999
4.19,0.028094,0.167627,0.139533,-0.113,-0.0643395,0.177339
4.195,0.0304885,0.176642,0.146154,-0.119587,-0.0667793,0.186366
4.2,0.0333187,0.187124,0.153806,-0.127273,-0.0695632,0.196836
4.205,0.0364611,0.19746,0.160999,-0.135054,-0.0719018,0.206956
4.21,0.0397033,0.206118,0.166415,-0.141925,-0.0731569,0.215082
4.215,0.0427138,0.213214,0.170501,-0.14776,-0.0737777,0.221538
4.22,0.0454613,0.220888,0.175427,-0.153777,-0.0750357,0.228813
4.225,0.0484352,0.231018,0.182583,-0.161342,-0.0774502,0.238793
4.23,0.0519484,0.242059,0.190111,-0.169745,-0.0797682,0.249514
4.235,0.0560723,0.251112,0.19504,-0.177353,-0.080233,0.257586
4.24,0.0610885,0.258035,0.196947,-0.184246,-0.0784378,0.262684
4.245,0.0672001,0.26416,0.19696,-0.191311,-0.0749171,0.266228
4.25,0.0742744,0.271359,0.197084,-0.199551,-0.0709042,0.270455
4.255,0.0818717,0.280826,0.198954,-0.209403,-0.0675976,0.277001
4.26,0.0896727,0.291325,0.201652,-0.219969,-0.0646514,0.284621
4.265,0.097448,0.300826,0.203378,-0.229943,-0.0611587,0.291102
4.27,0.104649,0.30835,0.203702,-0.238445,-0.0571884,0.295633
4.275,0.110713,0.313146,0.202433,-0.244715,-0.0529546,0.297669
4.28,0.115644,0.31517,0.199527,-0.24873,-0.04843,0.29716
4.285,0.119635,0.315214,0.195579,-0.25106,-0.0438463,0.294906
4.29,0.122573,0.314813,0.19224,-0.252525,-0.0402221,0.292747
4.295,0.124362,0.314818,0.190456,-0.25356,-0.0381596,0.29172
4.3,0.125028,0.31489,0.189862,-0.253987,-0.0374321,0.291419
4.305,0.124503,0.314674,0.190171,-0.253558,-0.0379135,0.291472
4.31,0.122651,0.314505,0.191853,-0.252392,-0.0399536,0.292346
4.315,0.119484,0.315463,0.195979,-0.251117,-0.0441643,0.295281
4.32,0.114856,0.318088,0.203232,-0.24996,-0.0510236,0.300984
4.325,0.10811,0.321827,0.213718,-0.248224,-0.0609727,0.309197
4.33,0.0989233,0.325684,0.226761,-0.245147,-0.0738072,0.318954
4.335,0.0874601,0.328516,0.241056,-0.240164,-0.0886784,0.328842
4.34,0.0742951,0.329293,0.254998,-0.233012,-0.104329,0.337341
4.345,0.0603407,0.32749,0.26715,-0.223914,-0.119401,0.343315
4.35,0.0463528,0.322543,0.276191,-0.212982,-0.132697,0.345679
4.355,0.0331132,0.314688,0.281575,-0.200803,-0.143449,0.344252
4.36,0.0215085,0.305971,0.284462,-0.18907,-0.151816,0.340887
4.365,0.0119607,0.297766,0.285805,-0.178821,-0.158104,0.336925
4.37,0.00438426,0.289998,0.285614,-0.169962,-0.162368,0.33233
4.375,-0.00140613,0.282113,0.283519,-0.162066,-0.164502,0.326568
4.38,-0.00582948,0.273602,0.279431,-0.154598,-0.164695,0.319294
4.385,-0.00954624,0.264753,0.274299,-0.147344,-0.163878,0.311222
4.39,-0.0124994,0.256956,0.269455,-0.141137,-0.162786,0.303923
4.395,-0.0145685,0.25153,0.266098,-0.13681,-0.162043,0.298852
4.4,-0.0158794,0.248458,0.264337,-0.134279,-0.161783,0.296062
4.405,-0.0163021,0.248069,0.264371,-0.13381,-0.162047,0.295857
4.41,-0.0156657,0.25016,0.265825,-0.135385,-0.162519,0.297904
4.415,-0.0142462,0.253355,0.267601,-0.13805,-0.162725,0.300774
4.42,-0.0126084,0.256401,0.269009,-0.140753,-0.162592,0.303345
4.425,-0.0112548,0.258725,0.26998,-0.142877,-0.162371,0.305248
4.43,-0.01023,0.260744,0.270974,-0.144635,-0.162353,0.306988
4.435,-0.00936126,0.263009,0.27237,-0.146443,-0.162657,0.309101
4.44,-0.00864443,0.265548,0.274192,-0.148323,-0.163296,0.311619
4.445,-0.00808374,0.268109,0.276193,-0.150126,-0.164127,0.314253
4.45,-0.00758315,0.270254,0.277837,-0.151653,-0.164787,0.31644
4.455,-0.00689408,0.271396,0.27829,-0.15271,-0.164651,0.317361
4.46,-0.00575751,0.271295,0.277052,-0.153308,-0.16328,0.316588
4.465,-0.0040807,0.270346,0.274427,-0.153728,-0.160796,0.314524
4.47,-0.00219854,0.268685,0.270884,-0.153856,-0.157664,0.31152
4.475,-0.000546636,0.265759,0.266306,-0.153121,-0.154067,0.307188
4.48,0.000524807,0.261207,0.260682,-0.151111,-0.150202,0.301312
4.485,0.00105799,0.256275,0.255217,-0.148571,-0.146738,0.295309
4.49,0.00158504,0.253114,0.251529,-0.147051,-0.144305,0.291356
4.495,0.00240561,0.251979,0.249574,-0.146869,-0.142703,0.289572
4.5,0.00344641,0.251699,0.248252,-0.147308,-0.141339,0.288647
4.505,0.0042947,0.251176,0.246881,-0.147496,-0.140057,0.287553
4.51,0.00470082,0.249052,0.244351,-0.146504,-0.138362,0.284866
4.515,0.00473927,0.244761,0.240022,-0.144049,-0.13584,0.279889
4.52,0.00470664,0.239419,0.234712,-0.140946,-0.132794,0.27374
4.525,0.00456623,0.23386,0.229294,-0.137655,-0.129746,0.267402
4.53,0.00386876,0.227916,0.224047,-0.133821,-0.12712,0.260941
4.535,0.00245013,0.222267,0.219817,-0.12974,-0.125497,0.255237
4.54,0.000896988,0.217844,0.216947,-0.12629,-0.124737,0.251027
4.545,-7.09E-05,0.214284,0.214355,-0.123676,-0.123799,0.247475
4.55,-0.000217419,0.210708,0.210925,-0.121527,-0.121903,0.24343
4.555,-1.25E-05,0.207616,0.207628,-0.11986,-0.119881,0.239741
4.56,-0.000178457,0.204746,0.204925,-0.118107,-0.118416,0.236523
4.565,-0.00110738,0.20109,0.202198,-0.11546,-0.117378,0.232838
4.57,-0.00279968,0.196392,0.199192,-0.111771,-0.11662,0.22839
4.575,-0.00460121,0.191288,0.195889,-0.107784,-0.115753,0.223537
4.58,-0.00588924,0.186349,0.192238,-0.104188,-0.114389,0.218577
4.585,-0.00654535,0.181168,0.187714,-0.100819,-0.112155,0.212974
4.59,-0.00674573,0.176287,0.183033,-0.0978845,-0.109568,0.207453
4.595,-0.00682708,0.172665,0.179492,-0.0957463,-0.107571,0.203317
4.6,-0.00695938,0.169777,0.176737,-0.094003,-0.106057,0.20006
4.605,-0.00725601,0.166211,0.173467,-0.0917726,-0.10434,0.196113
4.61,-0.00791731,0.161697,0.169614,-0.0887845,-0.102498,0.191282
4.615,-0.00902137,0.157044,0.166065,-0.0854607,-0.101086,0.186547
4.62,-0.0101633,0.153314,0.163477,-0.0826479,-0.100251,0.182899
4.625,-0.0107776,0.151193,0.161971,-0.0810689,-0.0997362,0.180805
4.63,-0.0108164,0.150477,0.161294,-0.0806333,-0.0993679,0.180001
4.635,-0.0105358,0.149845,0.160381,-0.0804303,-0.0986787,0.179109
4.64,-0.0100364,0.14837,0.158407,-0.0798671,-0.0972506,0.177118
4.645,-0.00930747,0.146066,0.155373,-0.0789573,-0.0950783,0.174036
4.65,-0.00857708,0.143388,0.151965,-0.0778329,-0.0926888,0.170522
4.655,-0.00816612,0.140168,0.148335,-0.0762115,-0.0903557,0.166567
4.66,-0.00804665,0.13542,0.143466,-0.0735389,-0.0874761,0.161015
4.665,-0.00820844,0.129343,0.137552,-0.0699373,-0.0841547,0.154092
4.67,-0.00832132,0.125268,0.133589,-0.067519,-0.081932,0.149451
4.675,-0.00791737,0.12538,0.133297,-0.0678169,-0.0815302,0.149347
4.68,-0.00713465,0.127521,0.134656,-0.0695053,-0.0818628,0.151368
4.685,-0.00634934,0.128372,0.134721,-0.0704497,-0.0814471,0.151897
4.69,-0.00594001,0.126981,0.132921,-0.0698832,-0.0801715,0.150055
4.695,-0.00608869,0.124335,0.130424,-0.0682696,-0.0788155,0.147085
4.7,-0.00649056,0.121835,0.128326,-0.0665943,-0.0778363,0.144431
4.705,-0.00654807,0.121821,0.128369,-0.0665528,-0.0778944,0.144447
4.71,-0.00617496,0.125901,0.132076,-0.0691241,-0.0798195,0.148944
4.715,-0.00604276,0.134314,0.140357,-0.0740573,-0.0845237,0.158581
4.72,-0.00650981,0.146415,0.152925,-0.0807745,-0.0920498,0.172824
4.725,-0.00730807,0.160112,0.16742,-0.0882212,-0.100879,0.1891
4.73,-0.00823021,0.171872,0.180102,-0.0944786,-0.108734,0.203212
4.735,-0.00890318,0.180407,0.18931,-0.0990177,-0.114438,0.213456
4.74,-0.00825854,0.188685,0.196943,-0.104169,-0.118473,0.222642
4.745,-0.00591401,0.198802,0.204716,-0.111364,-0.121607,0.232971
4.75,-0.00322009,0.210438,0.213658,-0.119637,-0.125214,0.244851
4.755,-0.0016231,0.222426,0.224049,-0.127481,-0.130292,0.257772
4.76,-0.00103423,0.233118,0.234152,-0.133993,-0.135785,0.269778
4.765,-0.000349326,0.240903,0.241252,-0.138884,-0.139489,0.278372
4.77,0.00154386,0.24472,0.243176,-0.14218,-0.139506,0.281686
4.775,0.00517359,0.242302,0.237129,-0.14288,-0.133919,0.2768
4.78,0.00982687,0.230875,0.221048,-0.138969,-0.121948,0.260917
4.785,0.013534,0.210301,0.196767,-0.129231,-0.10579,0.235021
4.79,0.0146372,0.183765,0.169128,-0.114548,-0.0891953,0.203743
4.795,0.013034,0.155376,0.142342,-0.0972314,-0.0746559,0.171887
4.8,0.00959797,0.127858,0.11826,-0.0793604,-0.0627362,0.142097
4.805,0.0054744,0.103194,0.0977195,-0.0627396,-0.0532577,0.115997
4.81,0.00159145,0.0830006,0.0814092,-0.0488392,-0.0460828,0.094922
4.815,-0.00139871,0.0674689,0.0688676,-0.0381456,-0.0405683,0.0787139
4.82,-0.00312445,0.0562712,0.0593957,-0.0306843,-0.036096,0.0667803
4.825,-0.0037934,0.0488468,0.0526402,-0.0260116,-0.032582,0.0585935
4.83,-0.00390398,0.0432128,0.0471167,-0.0226949,-0.0294568,0.0521517
4.835,-0.00307028,0.0372569,0.0403272,-0.0197376,-0.0250555,0.0447931
4.84,0.00104873,0.0324317,0.0313829,-0.0193299,-0.0175134,0.0368433
4.845,0.011376,0.0363759,0.0249999,-0.0275696,-0.00786578,0.0354353
4.85,0.0300695,0.0600544,0.0299849,-0.052033,4.88E-05,0.0519842
4.855,0.0547766,0.115891,0.0611141,-0.0985347,-0.00365898,0.102194
4.86,0.0761495,0.216446,0.140297,-0.16893,-0.0370355,0.205966
4.865,0.0825786,0.370206,0.287627,-0.261415,-0.118385,0.3798
4.87,0.0680958,0.574008,0.505912,-0.370718,-0.252773,0.623492
4.875,0.0316876,0.793872,0.762184,-0.476637,-0.421752,0.898389
4.88,-0.0234828,0.959822,0.983305,-0.540595,-0.581269,1.12186
4.885,-0.089175,1.00549,1.09466,-0.529032,-0.683488,1.21252
4.89,-0.153172,0.916413,1.06958,-0.440657,-0.705959,1.14662
4.895,-0.200974,0.739472,0.940445,-0.310902,-0.658998,0.9699
4.9,-0.220682,0.544317,0.764999,-0.186851,-0.569083,0.755934
4.905,-0.209384,0.378476,0.58786,-0.097625,-0.460289,0.557914
4.91,-0.174443,0.256304,0.430747,-0.0472623,-0.349406,0.396669
4.915,-0.127827,0.173451,0.301278,-0.026341,-0.247744,0.274085
4.92,-0.0809274,0.12013,0.201057,-0.0226335,-0.162804,0.185437
4.925,-0.0416905,0.0860131,0.127704,-0.0255896,-0.0977997,0.123389
4.93,-0.0134203,0.0617266,0.0751469,-0.0278896,-0.0511342,0.0790239
4.935,0.00462737,0.0421965,0.0375691,-0.0270337,-0.0190189,0.0460526
4.94,0.0151748,0.0266049,0.0114301,-0.0241215,0.00216201,0.0219595
4.945,0.0209242,0.0152748,-0.00564948,-0.0208995,0.0153423,0.00555715
4.95,0.0239623,0.00797831,-0.015984,-0.0184409,0.023063,-0.00462207
4.955,0.0259147,0.00418504,-0.0217296,-0.0173781,0.0275074,-0.0101294
4.96,0.0276911,0.00223634,-0.0254548,-0.0172786,0.0306838,-0.0134052
4.965,0.0295194,0.000789741,-0.0287296,-0.017499,0.0336301,-0.0161311
4.97,0.0314313,0.000335074,-0.0310962,-0.0183403,0.0361003,-0.01776
4.975,0.0331829,0.000843182,-0.0323398,-0.019645,0.0378295,-0.0181846
4.98,0.0347185,0.000526419,-0.034192,-0.0203486,0.0397855,-0.0194368
4.985,0.0365594,-0.000700236,-0.0372597,-0.0207033,0.0426195,-0.0219162
4.99,0.0390246,-0.00123674,-0.0402614,-0.0218168,0.0457758,-0.0239589
4.995,0.0416408,-0.000261017,-0.0419018,-0.0238906,0.0482333,-0.0243427
5,0.0438844,0.0021701,-0.0417143,-0.0265896,0.0494204,-0.0228308
5.005,0.0456567,0.00509774,-0.0405589,-0.0293031,0.0497766,-0.0204735
5.01,0.0474398,0.00799466,-0.0394451,-0.0320051,0.050163,-0.0181579
5.015,0.0497473,0.0104578,-0.0392894,-0.0347594,0.0514053,-0.0166459
5.02,0.0524352,0.0118999,-0.0405353,-0.0371438,0.0536765,-0.0165327
5.025,0.0551618,0.0129694,-0.0421923,-0.0393355,0.0562074,-0.0168718
5.03,0.0581407,0.0153318,-0.0428089,-0.0424193,0.0582832,-0.0158639
5.035,0.0618611,0.0193409,-0.0425202,-0.046882,0.0602646,-0.0133826
5.04,0.0667012,0.024101,-0.0426002,-0.0524246,0.0631052,-0.0106806
5.045,0.0729903,0.0291307,-0.0438596,-0.0589596,0.0674633,-0.00850369
5.05,0.0802892,0.0343792,-0.04591,-0.0662038,0.0728611,-0.00665727
5.055,0.0874738,0.039738,-0.0477359,-0.0734457,0.0780633,-0.00461761
5.06,0.0943377,0.0455958,-0.0487419,-0.0807906,0.082607,-0.00181636
5.065,0.101521,0.0526066,-0.0489145,-0.0889857,0.086854,0.00213166
5.07,0.109376,0.0608833,-0.0484925,-0.0982991,0.0911453,0.00715382
5.075,0.117556,0.0699532,-0.0476026,-0.108258,0.0953541,0.0129041
5.08,0.125524,0.0780959,-0.0474284,-0.11756,0.0998542,0.0177059
5.085,0.133038,0.0829673,-0.050071,-0.124711,0.105718,0.0189927
5.09,0.139871,0.0846812,-0.0551894,-0.129645,0.112618,0.0170271
5.095,0.14596,0.0857554,-0.0602044,-0.133781,0.119029,0.0147518
5.1,0.151244,0.0877715,-0.0634721,-0.137995,0.123966,0.0140292
5.105,0.155296,0.0900604,-0.0652357,-0.141657,0.127324,0.0143325
5.11,0.1577,0.0918863,-0.0658134,-0.144098,0.129045,0.0150532
5.115,0.15837,0.0928487,-0.0655211,-0.145041,0.129263,0.0157776
5.12,0.157439,0.0921135,-0.0653254,-0.144079,0.128613,0.0154661
5.125,0.154772,0.0897618,-0.0650102,-0.141182,0.126891,0.0142904
5.13,0.150193,0.0879951,-0.0621977,-0.137518,0.122624,0.0148941
5.135,0.143535,0.0879873,-0.0555481,-0.13367,0.114941,0.0187288
5.14,0.134923,0.0895735,-0.0453495,-0.129613,0.10408,0.0255328
5.145,0.124613,0.0913245,-0.0332884,-0.124671,0.0911644,0.0335071
5.15,0.112719,0.091197,-0.021522,-0.117731,0.077504,0.0402269
5.155,0.0995547,0.0882645,-0.0112902,-0.108437,0.0639963,0.0444411
5.16,0.0857932,0.0827702,-0.00302298,-0.0973201,0.051278,0.0460421
5.165,0.0722291,0.0755488,0.00331963,-0.0853196,0.0397849,0.0455347
5.17,0.0595829,0.0666976,0.00711473,-0.072908,0.0302925,0.0426155
5.175,0.0484416,0.0561769,0.00773532,-0.0604015,0.0235018,0.0368997
5.18,0.0391097,0.0448099,0.00570023,-0.048451,0.019289,0.029162
5.185,0.0315564,0.0331794,0.001623,-0.0373752,0.017282,0.0200932
5.19,0.0257622,0.0227629,-0.00299933,-0.028016,0.0166055,0.0114105
5.195,0.0216323,0.014426,-0.00720629,-0.0208183,0.01665,0.00416831
5.2,0.018919,0.00776569,-0.0111533,-0.0154064,0.0173623,-0.00195586
5.205,0.0172222,0.0030558,-0.0141664,-0.0117075,0.0181222,-0.00641469
5.21,0.0162926,5.95E-05,-0.016233,-0.00944088,0.0187786,-0.00933776
5.215,0.015904,-0.00207406,-0.0179781,-0.00798473,0.0195618,-0.0115771
5.22,0.0159083,-0.00261545,-0.0185237,-0.00767461,0.0198793,-0.0122047
5.225,0.0161183,-0.000826585,-0.0169449,-0.00882866,0.019089,-0.0102603
5.23,0.0163463,0.0026919,-0.0136544,-0.0109917,0.0173209,-0.00632921
5.235,0.0168262,0.00709039,-0.00973586,-0.0138083,0.0153356,-0.00152736
5.24,0.0178009,0.01103,-0.00677088,-0.0166456,0.0141865,0.00245903
5.245,0.0190409,0.0138055,-0.00523547,-0.0189639,0.014016,0.00494789
5.25,0.0201374,0.016005,-0.0041324,-0.0208668,0.0140122,0.00685464
5.255,0.0208756,0.0172773,-0.00359826,-0.0220276,0.01413,0.0078976
5.26,0.0212202,0.0163474,-0.0048728,-0.0216897,0.0150648,0.00662486
5.265,0.0214066,0.0143092,-0.00709737,-0.0206205,0.0164568,0.00416378
5.27,0.022041,0.0137751,-0.00826597,-0.0206784,0.0174978,0.00318069
5.275,0.0234792,0.0153545,-0.00812478,-0.0224206,0.0182466,0.00417406
5.28,0.0255554,0.0173631,-0.00819233,-0.024779,0.0194843,0.00529475
5.285,0.027627,0.0177431,-0.00988391,-0.0261944,0.0216569,0.00453748
5.29,0.0290773,0.0154873,-0.0135899,-0.0257294,0.0246339,0.00109548
5.295,0.0301094,0.0111922,-0.0189172,-0.0238455,0.0283055,-0.00446001
5.3,0.0309527,0.00577914,-0.0251735,-0.0212071,0.0324045,-0.0111974
5.305,0.0314626,0.000498777,-0.0309638,-0.0184529,0.0360419,-0.017589
5.31,0.0314139,-0.00325555,-0.0346694,-0.0162572,0.0381532,-0.021896
5.315,0.0310827,-0.00522313,-0.0363059,-0.01493,0.0389068,-0.0239768
5.32,0.0308605,-0.00625043,-0.037111,-0.0142086,0.0392434,-0.0250347
5.325,0.0309016,-0.00662269,-0.0375242,-0.0140174,0.0395056,-0.0254882
5.33,0.0311082,-0.00650687,-0.0376151,-0.0142036,0.0396774,-0.0254738
5.335,0.0311192,-0.00726369,-0.0383829,-0.013773,0.040127,-0.0263541
5.34,0.0308905,-0.00973221,-0.0406227,-0.0122157,0.0412881,-0.0290724
5.345,0.03074,-0.0138029,-0.0445429,-0.00977864,0.0434646,-0.0336859
5.35,0.030758,-0.0195232,-0.0502812,-0.00648639,0.046788,-0.0403016
5.355,0.0308371,-0.025928,-0.0567651,-0.00283423,0.0505771,-0.0477429
5.36,0.0308313,-0.0315738,-0.0624051,0.000428692,0.05383,-0.0542587
5.365,0.030485,-0.0363312,-0.0668161,0.0033753,0.0561768,-0.0595521
5.37,0.0299755,-0.0404634,-0.0704389,0.00605523,0.0579742,-0.0640295
5.375,0.029586,-0.0439258,-0.0735117,0.00827909,0.0595235,-0.0678026
5.38,0.0294582,-0.0467031,-0.0761613,0.00995632,0.0609794,-0.0709358
5.385,0.0296289,-0.0495106,-0.0791395,0.0114787,0.0627974,-0.0742761
5.39,0.0297025,-0.0529349,-0.0826374,0.0134133,0.0648594,-0.0782727
5.395,0.0295859,-0.0570374,-0.0866233,0.0158491,0.0670934,-0.0829425
5.4,0.0293454,-0.0622475,-0.091593,0.018996,0.0698238,-0.0888198
5.405,0.0291237,-0.0671979,-0.0963216,0.0219821,0.0724258,-0.094408
5.41,0.0290263,-0.069718,-0.0987443,0.0234933,0.0737683,-0.0972617
5.415,0.0290967,-0.0693369,-0.0984335,0.0232327,0.0736296,-0.0968622
5.42,0.0294815,-0.0685683,-0.0980498,0.0225667,0.0736302,-0.0961969
5.425,0.0302506,-0.0694236,-0.0996742,0.0226165,0.0750121,-0.0976286
5.43,0.0313009,-0.0715887,-0.10289,0.0232601,0.0774749,-0.100735
5.435,0.0324874,-0.073977,-0.106464,0.0239541,0.0802238,-0.104178
5.44,0.0335814,-0.0763429,-0.109924,0.0246883,0.082853,-0.107541
5.445,0.0344242,-0.0788357,-0.11326,0.0256409,0.0852655,-0.110906
5.45,0.0351798,-0.0814569,-0.116637,0.0267181,0.0876513,-0.114369
5.455,0.0360038,-0.0837876,-0.119791,0.027588,0.0899483,-0.117536
5.46,0.0368921,-0.0852558,-0.122148,0.0279228,0.0918218,-0.119745
5.465,0.037577,-0.0867168,-0.124294,0.0283709,0.0934561,-0.121827
5.47,0.0379291,-0.0891031,-0.127032,0.0295453,0.0952405,-0.124786
5.475,0.0379992,-0.091411,-0.12941,0.0308373,0.0966539,-0.127491
5.48,0.0377273,-0.0920781,-0.129805,0.0313794,0.096725,-0.128104
5.485,0.0371697,-0.0912835,-0.128453,0.0312426,0.0956224,-0.126865
5.49,0.0364002,-0.0909826,-0.127383,0.0315132,0.0945601,-0.126073
5.495,0.0356617,-0.0921099,-0.127772,0.0325903,0.0943582,-0.126949
5.5,0.0351473,-0.0945202,-0.129668,0.034279,0.0951558,-0.129435
5.505,0.0351214,-0.0974596,-0.132581,0.035991,0.0968229,-0.132814
5.51,0.0359678,-0.100171,-0.136139,0.0370678,0.0993658,-0.136434
5.515,0.0376646,-0.102074,-0.139739,0.0371869,0.102424,-0.139611
5.52,0.0396329,-0.10339,-0.143023,0.0368104,0.105457,-0.142267
5.525,0.0410898,-0.105074,-0.146164,0.0369415,0.108111,-0.145053
5.53,0.041766,-0.107387,-0.149153,0.037886,0.110227,-0.148113
5.535,0.0421186,-0.108659,-0.150777,0.0384171,0.111369,-0.149786
5.54,0.0426963,-0.107501,-0.150197,0.0374149,0.111367,-0.148782
5.545,0.0436574,-0.103433,-0.147091,0.0345116,0.110128,-0.14464
5.55,0.0447804,-0.0962751,-0.141055,0.0297304,0.107292,-0.137023
5.555,0.0457571,-0.0865922,-0.132349,0.0235761,0.10283,-0.126406
5.56,0.0463537,-0.0751998,-0.121554,0.0166543,0.0969413,-0.113596
5.565,0.0461084,-0.0639095,-0.110018,0.0102774,0.0901396,-0.100417
5.57,0.0447172,-0.0545337,-0.0992509,0.0056676,0.08312,-0.0887876
5.575,0.0431614,-0.0461028,-0.0892642,0.00169822,0.0764559,-0.0781541
5.58,0.0433183,-0.0361984,-0.0795167,-0.00411067,0.0709187,-0.0668081
5.585,0.0459694,-0.0245872,-0.0705566,-0.012345,0.0672763,-0.0549313
5.59,0.0501785,-0.0119545,-0.0621329,-0.0220686,0.064843,-0.0427744
5.595,0.0540186,0.00145611,-0.0525625,-0.0320283,0.0615346,-0.0295063
5.6,0.0560222,0.0143986,-0.0416237,-0.0406574,0.0563758,-0.0157184
5.605,0.0567678,0.0257375,-0.0310303,-0.0476344,0.0506903,-0.00305582
5.61,0.0579597,0.0345932,-0.0233665,-0.0534354,0.0469537,0.00648172
5.615,0.0606558,0.0377484,-0.0229074,-0.0568136,0.0482452,0.00856844
5.62,0.0643586,0.0310107,-0.0333479,-0.0550615,0.0564109,-0.0013494
5.625,0.0676145,0.0139909,-0.0536236,-0.0471148,0.0699968,-0.022882
5.63,0.0689405,-0.0106986,-0.0796391,-0.033626,0.0857824,-0.0521564
5.635,0.0678621,-0.0390937,-0.106956,-0.0166094,0.100931,-0.0843217
5.64,0.0650325,-0.0671294,-0.132162,0.00121064,0.11385,-0.115061
5.645,0.0614731,-0.0923888,-0.153862,0.0178491,0.124324,-0.142173
5.65,0.0578765,-0.113825,-0.171701,0.0323018,0.132547,-0.164849
5.655,0.0546558,-0.13124,-0.185896,0.044216,0.138883,-0.183098
5.66,0.0522806,-0.145419,-0.1977,0.0537735,0.144326,-0.1981
5.665,0.0511333,-0.157586,-0.208719,0.0614603,0.150026,-0.211486
5.67,0.050676,-0.167724,-0.2184,0.0675779,0.155351,-0.222929
5.675,0.0506837,-0.174968,-0.225652,0.0717554,0.159542,-0.231298
5.68,0.0528025,-0.179143,-0.231946,0.0729429,0.1644,-0.237342
5.685,0.0597711,-0.176963,-0.236734,0.0676608,0.171187,-0.238848
5.69,0.0754388,-0.159229,-0.234667,0.048376,0.17904,-0.227416
5.695,0.101793,-0.113271,-0.215064,0.00662713,0.182938,-0.189565
5.7,0.132064,-0.025563,-0.157627,-0.0614885,0.167253,-0.105765
5.705,0.153042,0.116676,-0.0363655,-0.155722,0.109354,0.0463674
5.71,0.154592,0.316073,0.161481,-0.271738,-0.00397732,0.275716
5.715,0.132002,0.5467,0.414697,-0.391849,-0.163214,0.555063
5.72,0.0854952,0.742598,0.657103,-0.4781,-0.330018,0.808118
5.725,0.0217051,0.830055,0.80835,-0.491764,-0.45417,0.945934
5.73,-0.0470697,0.777858,0.824927,-0.42192,-0.503447,0.925368
5.735,-0.104648,0.61861,0.723258,-0.296736,-0.477991,0.774728
5.74,-0.136257,0.421233,0.55749,-0.164531,-0.400535,0.565066
5.745,-0.135378,0.241781,0.37716,-0.0614319,-0.295914,0.357346
5.75,-0.106996,0.10259,0.209586,0.00254368,-0.182779,0.180235
5.755,-0.0631808,0.00359367,0.0667745,0.0344026,-0.0750297,0.0406271
5.76,-0.0167689,-0.0630348,-0.0462659,0.0460746,0.0170301,-0.0631047
5.765,0.0229589,-0.106763,-0.129722,0.0483842,0.0881501,-0.136534
5.77,0.0519143,-0.135282,-0.187196,0.0481321,0.13805,-0.186182
5.775,0.0700778,-0.153542,-0.22362,0.0481882,0.169566,-0.217755
5.78,0.0798618,-0.164947,-0.244809,0.0491239,0.187448,-0.236572
5.785,0.0845892,-0.171829,-0.256418,0.050368,0.196881,-0.247249
5.79,0.0869867,-0.176341,-0.263328,0.0515888,0.202254,-0.253843
5.795,0.088644,-0.180454,-0.269098,0.0530064,0.206542,-0.259549
5.8,0.0903814,-0.185138,-0.27552,0.054708,0.211253,-0.265961
5.805,0.0923866,-0.189903,-0.28229,0.056301,0.216319,-0.27262
5.81,0.0946052,-0.19343,-0.288035,0.0570565,0.220917,-0.277974
5.815,0.0970465,-0.194412,-0.291458,0.0562138,0.224303,-0.280517
5.82,0.0997051,-0.192843,-0.292548,0.053773,0.226467,-0.28024
5.825,0.102379,-0.19065,-0.293029,0.0509629,0.228289,-0.279252
5.83,0.105034,-0.188889,-0.293923,0.0484137,0.230338,-0.278751
5.835,0.107732,-0.187839,-0.295571,0.0462495,0.232847,-0.279097
5.84,0.110421,-0.186672,-0.297093,0.0440234,0.235278,-0.279302
5.845,0.112807,-0.184686,-0.297493,0.0414997,0.236886,-0.278386
5.85,0.115086,-0.18162,-0.296706,0.0384129,0.237748,-0.276161
5.855,0.117802,-0.177706,-0.295508,0.0345852,0.238625,-0.27321
5.86,0.121025,-0.173787,-0.294811,0.0304621,0.240083,-0.270545
5.865,0.1244,-0.170735,-0.295135,0.0267514,0.242218,-0.26897
5.87,0.127931,-0.167858,-0.29579,0.023052,0.244635,-0.267687
5.875,0.131829,-0.163993,-0.295823,0.0185699,0.246905,-0.265475
5.88,0.136257,-0.158375,-0.294632,0.0127696,0.248774,-0.261544
5.885,0.141486,-0.151244,-0.29273,0.00563386,0.250695,-0.256329
5.89,0.147587,-0.142815,-0.290403,-0.00275536,0.252874,-0.250118
5.895,0.154349,-0.13357,-0.287918,-0.0119965,0.255343,-0.243346
5.9,0.161638,-0.124631,-0.28627,-0.021366,0.2586,-0.237234
5.905,0.169272,-0.117223,-0.286495,-0.0300505,0.263137,-0.233086
5.91,0.17715,-0.111217,-0.288367,-0.0380663,0.268766,-0.2307
5.915,0.185297,-0.106173,-0.29147,-0.0456824,0.275262,-0.229579
5.92,0.193674,-0.10237,-0.296044,-0.0527145,0.282739,-0.230025
5.925,0.201966,-0.0997803,-0.301746,-0.058997,0.290818,-0.231821
5.93,0.209602,-0.0974088,-0.307011,-0.0647746,0.298266,-0.233492
5.935,0.216025,-0.0945638,-0.310589,-0.0701259,0.304041,-0.233915
5.94,0.220898,-0.0921184,-0.313017,-0.0743511,0.308256,-0.233905
5.945,0.224309,-0.0913262,-0.315636,-0.0767779,0.311737,-0.234959
5.95,0.226591,-0.0927119,-0.319303,-0.0772952,0.315172,-0.237877
5.955,0.227875,-0.0956792,-0.323554,-0.0763232,0.318368,-0.242044
5.96,0.22802,-0.0981906,-0.32621,-0.0749567,0.319984,-0.245028
5.965,0.226478,-0.0984896,-0.324968,-0.0738943,0.318377,-0.244483
5.97,0.222787,-0.096315,-0.319102,-0.0730188,0.31286,-0.239841
5.975,0.217155,-0.0924071,-0.309562,-0.072023,0.3041,-0.232077
5.98,0.210198,-0.0890517,-0.29925,-0.0699437,0.294129,-0.224186
5.985,0.205187,-0.0903587,-0.295546,-0.0662964,0.289098,-0.222802
5.99,0.209827,-0.097853,-0.30768,-0.0646483,0.298783,-0.234135
5.995,0.222346,-0.108976,-0.331322,-0.0654537,0.31966,-0.254206
6,0.228046,-0.119707,-0.347753,-0.0625492,0.332438,-0.269888
6.005,0.214892,-0.128125,-0.343017,-0.0500953,0.322109,-0.272014
6.01,0.183867,-0.133993,-0.317861,-0.0287947,0.289673,-0.260878
6.015,0.144255,-0.138063,-0.282319,-0.00357492,0.246283,-0.242708
6.02,0.106934,-0.141783,-0.248716,0.0201201,0.205334,-0.225455
6.025,0.0789901,-0.145797,-0.224787,0.038571,0.175386,-0.213957
6.03,0.0622585,-0.150205,-0.212464,0.050776,0.158611,-0.209387
6.035,0.0553042,-0.155044,-0.210348,0.0575847,0.153374,-0.210959
6.04,0.0551859,-0.160389,-0.215575,0.0607391,0.156324,-0.217063
6.045,0.0587277,-0.165515,-0.224243,0.0616539,0.163373,-0.225027
6.05,0.0634983,-0.169478,-0.232976,0.0611874,0.17117,-0.232357
6.055,0.0684996,-0.172058,-0.240558,0.0597897,0.178434,-0.238224
6.06,0.0736019,-0.173356,-0.246958,0.0575932,0.185075,-0.242668
6.065,0.0785154,-0.173721,-0.252237,0.0549671,0.19096,-0.245927
6.07,0.0825026,-0.173655,-0.256157,0.0526267,0.195525,-0.248152
6.075,0.0851503,-0.172982,-0.258132,0.0507096,0.198194,-0.248904
6.08,0.0866117,-0.17209,-0.258702,0.0493509,0.199367,-0.248717
6.085,0.0875216,-0.171555,-0.259076,0.0485165,0.200108,-0.248625
6.09,0.0883916,-0.171069,-0.259461,0.047734,0.200833,-0.248567
6.095,0.0893297,-0.170241,-0.259571,0.0467142,0.201438,-0.248152
6.1,0.0904255,-0.168846,-0.259272,0.0452763,0.201898,-0.247174
6.105,0.0917026,-0.166584,-0.258287,0.043233,0.202066,-0.245299
6.11,0.0929192,-0.164293,-0.257212,0.0412076,0.202148,-0.243356
6.115,0.0938511,-0.163175,-0.257026,0.0400241,0.202579,-0.242603
6.12,0.0942069,-0.163012,-0.257219,0.0397244,0.202895,-0.24262
6.125,0.0941799,-0.162993,-0.257173,0.0397293,0.202854,-0.242583
6.13,0.094238,-0.163321,-0.257559,0.0398852,0.20311,-0.242995
6.135,0.0945513,-0.164707,-0.259258,0.0405041,0.204272,-0.244776
6.14,0.0947905,-0.166919,-0.26171,0.0416436,0.205826,-0.247469
6.145,0.0946831,-0.168018,-0.262701,0.0423399,0.206336,-0.248676
6.15,0.0945308,-0.166431,-0.260962,0.0415115,0.205244,-0.246755
6.155,0.0945021,-0.164218,-0.25872,0.0402502,0.203933,-0.244183
6.16,0.094782,-0.162796,-0.257578,0.0392678,0.203435,-0.242703
6.165,0.095366,-0.161504,-0.25687,0.0381848,0.203363,-0.241548
6.17,0.0960838,-0.159868,-0.255952,0.036826,0.203248,-0.240074
6.175,0.0969916,-0.158776,-0.255767,0.0356711,0.203665,-0.239336
6.18,0.0978064,-0.159694,-0.257501,0.0357311,0.205137,-0.240868
6.185,0.0978225,-0.164306,-0.262129,0.0383845,0.207818,-0.246202
6.19,0.0970886,-0.171867,-0.268955,0.0431732,0.211335,-0.254509
6.195,0.0961007,-0.180222,-0.276323,0.0485675,0.215019,-0.263586
6.2,0.0951393,-0.188352,-0.283491,0.0538162,0.218602,-0.272419
6.205,0.0941421,-0.194723,-0.288865,0.0580705,0.221129,-0.2792
6.21,0.0929902,-0.198004,-0.290994,0.0606298,0.221694,-0.282323
6.215,0.0914979,-0.198804,-0.290302,0.0619533,0.220432,-0.282386
6.22,0.0894568,-0.198605,-0.288061,0.0630165,0.21796,-0.280977
6.225,0.0870241,-0.197979,-0.285003,0.0640599,0.21479,-0.27885
6.23,0.084258,-0.197044,-0.281302,0.0651172,0.211056,-0.276174
6.235,0.0811944,-0.196921,-0.278115,0.0668147,0.207447,-0.274262
6.24,0.0788732,-0.198397,-0.27727,0.0690068,0.205619,-0.274626
6.245,0.0783316,-0.201094,-0.279426,0.0708771,0.206551,-0.277428
6.25,0.0793623,-0.205025,-0.284388,0.0725516,0.210011,-0.282563
6.255,0.0810326,-0.209037,-0.29007,0.0739036,0.214256,-0.28816
6.26,0.0824488,-0.21102,-0.293468,0.0742303,0.217036,-0.291266
6.265,0.0831975,-0.210863,-0.294061,0.0737077,0.21781,-0.291518
6.27,0.0832604,-0.209783,-0.293044,0.0730481,0.217259,-0.290307
6.275,0.0830561,-0.208254,-0.29131,0.0722832,0.216141,-0.288424
6.28,0.0831111,-0.20766,-0.290771,0.0719085,0.215861,-0.28777
6.285,0.0834349,-0.209584,-0.293019,0.0728322,0.217346,-0.290178
6.29,0.0840894,-0.212661,-0.29675,0.0742308,0.219878,-0.294109
6.295,0.0850293,-0.214133,-0.299162,0.074538,0.221813,-0.296351
6.3,0.0857974,-0.214278,-0.300075,0.074178,0.222783,-0.296961
6.305,0.0863772,-0.214327,-0.300704,0.0738718,0.223482,-0.297353
6.31,0.0868027,-0.213891,-0.300694,0.0733747,0.223721,-0.297096
6.315,0.0869056,-0.212289,-0.299195,0.0723901,0.222915,-0.295305
6.32,0.0864481,-0.210812,-0.29726,0.0718015,0.221534,-0.293335
6.325,0.0856833,-0.21033,-0.296013,0.0719645,0.220372,-0.292337
6.33,0.0851866,-0.210671,-0.295857,0.0724483,0.219996,-0.292444
6.335,0.0850386,-0.212459,-0.297497,0.073566,0.220857,-0.294423
6.34,0.0853472,-0.21471,-0.300057,0.0746873,0.222513,-0.2972
6.345,0.0861146,-0.214449,-0.300564,0.0740941,0.223249,-0.297343
6.35,0.0868589,-0.209695,-0.296554,0.0709193,0.221363,-0.292282
6.355,0.0871423,-0.20055,-0.287693,0.0654761,0.216411,-0.281887
6.36,0.086811,-0.188778,-0.275589,0.0588708,0.209232,-0.268103
6.365,0.0861824,-0.177124,-0.263306,0.0525051,0.201777,-0.254283
6.37,0.0857167,-0.166716,-0.252432,0.0467648,0.19523,-0.241995
6.375,0.085665,-0.15661,-0.242275,0.04096,0.189336,-0.230296
6.38,0.0862032,-0.145311,-0.231514,0.0341259,0.183434,-0.21756
6.385,0.0872551,-0.131905,-0.21916,0.0257787,0.176909,-0.202688
6.39,0.0882083,-0.117748,-0.205957,0.017055,0.169836,-0.186891
6.395,0.0889703,-0.103554,-0.192524,0.00841978,0.162521,-0.170941
6.4,0.0896156,-0.0889353,-0.178551,-0.000392774,0.154826,-0.154433
6.405,0.0906134,-0.0745189,-0.165132,-0.00929213,0.147655,-0.138363
6.41,0.0925955,-0.0624247,-0.15502,-0.0174191,0.142961,-0.125542
6.415,0.0955341,-0.0564986,-0.152033,-0.0225372,0.142933,-0.120396
6.42,0.0987399,-0.0604689,-0.159209,-0.0220957,0.148927,-0.126831
6.425,0.101362,-0.0747621,-0.176125,-0.0153577,0.160207,-0.144849
6.43,0.102444,-0.0971461,-0.19959,-0.00305851,0.174379,-0.17132
6.435,0.101621,-0.124053,-0.225674,0.0129511,0.188964,-0.201915
6.44,0.0994426,-0.151606,-0.251048,0.0301163,0.202356,-0.232472
6.445,0.0968018,-0.177495,-0.274297,0.0465884,0.214254,-0.260842
6.45,0.0943932,-0.199366,-0.293759,0.0606059,0.2241,-0.284705
6.455,0.092732,-0.214755,-0.307487,0.0704498,0.231066,-0.301516
6.46,0.0918748,-0.22306,-0.314934,0.0757395,0.234871,-0.310611
6.465,0.0913807,-0.226753,-0.318134,0.0781572,0.236433,-0.31459
6.47,0.0908628,-0.229815,-0.320678,0.0802241,0.237603,-0.317827
6.475,0.0905081,-0.234672,-0.32518,0.0832331,0.239998,-0.323231
6.48,0.0912227,-0.241401,-0.332624,0.0867054,0.244708,-0.331413
6.485,0.0954537,-0.246828,-0.342282,0.0873958,0.252726,-0.340122
6.49,0.106872,-0.242947,-0.349819,0.0785628,0.263671,-0.342234
6.495,0.129982,-0.217183,-0.347165,0.0503455,0.275481,-0.325826
6.5,0.164725,-0.154103,-0.318828,-0.00613257,0.279179,-0.273047
6.505,0.200314,-0.0389666,-0.23928,-0.0931538,0.2538,-0.160646
6.51,0.220342,0.138262,-0.0820798,-0.20704,0.174603,0.0324368
6.515,0.21291,0.36914,0.156229,-0.336047,0.0327246,0.303322
6.52,0.173485,0.605227,0.431742,-0.449589,-0.149105,0.598694
6.525,0.10741,0.767615,0.660204,-0.505196,-0.319156,0.824351
6.53,0.0285866,0.793421,0.764834,-0.474586,-0.425073,0.899659
6.535,-0.0445306,0.678828,0.723358,-0.366211,-0.443341,0.809552
6.54,-0.0949313,0.479994,0.574925,-0.222316,-0.386742,0.609058
6.545,-0.112962,0.27217,0.385132,-0.0919187,-0.287575,0.379493
6.55,-0.0992405,0.103665,0.202905,-0.00255438,-0.174444,0.176998
6.555,-0.0632256,-0.0126394,0.0505862,0.0438007,-0.0657092,0.0219086
6.56,-0.0178777,-0.0845015,-0.0666239,0.0591086,0.0281436,-0.0872522
6.565,0.025594,-0.127103,-0.152697,0.058606,0.102936,-0.161542
6.57,0.0602711,-0.153547,-0.213818,0.0538527,0.158245,-0.212098
6.575,0.0839825,-0.171525,-0.255508,0.0505428,0.196005,-0.246547
6.58,0.0979278,-0.184799,-0.282727,0.050155,0.219771,-0.269926
6.585,0.105435,-0.195237,-0.300672,0.0518472,0.234466,-0.286313
6.59,0.109467,-0.203465,-0.312931,0.0542698,0.243872,-0.298141
6.595,0.111751,-0.209185,-0.320936,0.0562534,0.249812,-0.306065
6.6,0.113376,-0.212479,-0.325855,0.0572172,0.25359,-0.310807
6.605,0.115006,-0.213596,-0.328602,0.0569213,0.256117,-0.313038
6.61,0.116933,-0.213106,-0.330038,0.0555255,0.258059,-0.313584
6.615,0.119352,-0.211671,-0.331023,0.0533006,0.260024,-0.313325
6.62,0.122076,-0.21005,-0.332126,0.0507918,0.262234,-0.313026
6.625,0.12451,-0.208653,-0.333163,0.0485799,0.264237,-0.312817
6.63,0.126578,-0.206627,-0.333205,0.0462165,0.265455,-0.311672
6.635,0.128439,-0.203357,-0.331796,0.0432538,0.265716,-0.30897
6.64,0.130344,-0.198411,-0.328755,0.0392984,0.265061,-0.30436
6.645,0.132526,-0.19155,-0.324076,0.0340773,0.263619,-0.297696
6.65,0.134884,-0.183541,-0.318425,0.0280923,0.261717,-0.28981
6.655,0.137074,-0.175344,-0.312417,0.0220954,0.259514,-0.281609
6.66,0.139105,-0.167462,-0.306567,0.0163717,0.257308,-0.27368
6.665,0.141243,-0.161048,-0.302291,0.0114345,0.256074,-0.267509
6.67,0.143807,-0.156622,-0.300429,0.0073987,0.256479,-0.263878
6.675,0.147028,-0.153645,-0.300672,0.00382018,0.25848,-0.2623
6.68,0.151167,-0.15056,-0.301727,-0.000350511,0.261479,-0.261128
6.685,0.156225,-0.145546,-0.301771,-0.00616568,0.264424,-0.258259
6.69,0.161607,-0.139159,-0.300766,-0.01296,0.266951,-0.253991
6.695,0.167,-0.132768,-0.299768,-0.0197637,0.269489,-0.249725
6.7,0.172504,-0.127126,-0.299629,-0.0261992,0.272586,-0.246387
6.705,0.178223,-0.122533,-0.300757,-0.0321526,0.276539,-0.244387
6.71,0.184506,-0.118296,-0.302803,-0.0382265,0.281348,-0.243121
6.715,0.191972,-0.113028,-0.305,-0.0455785,0.286927,-0.241349
6.72,0.200558,-0.106571,-0.307129,-0.0542632,0.293113,-0.23885
6.725,0.2093,-0.099308,-0.308608,-0.0635041,0.299015,-0.235511
6.73,0.217171,-0.0920257,-0.309197,-0.0722528,0.303899,-0.231646
6.735,0.223519,-0.0862812,-0.309801,-0.0792344,0.307912,-0.228678
6.74,0.228075,-0.0826688,-0.310744,-0.0839503,0.311087,-0.227137
6.745,0.231202,-0.0803746,-0.311576,-0.08708,0.313373,-0.226293
6.75,0.23328,-0.0790237,-0.312304,-0.08906,0.314993,-0.225933
6.755,0.234486,-0.0781741,-0.31266,-0.0902464,0.315894,-0.225648
6.76,0.234923,-0.0765635,-0.311487,-0.0914291,0.31547,-0.224041
6.765,0.23454,-0.0738125,-0.308352,-0.092796,0.313439,-0.220643
6.77,0.232645,-0.0708618,-0.303507,-0.0934057,0.309548,-0.216142
6.775,0.228512,-0.0682746,-0.296787,-0.0925133,0.303281,-0.210768
6.78,0.221618,-0.0659767,-0.287595,-0.0898597,0.293994,-0.204135
6.785,0.211836,-0.0645954,-0.276431,-0.0850094,0.281901,-0.196892
6.79,0.199535,-0.0653038,-0.264838,-0.0774982,0.268106,-0.190608
6.795,0.185749,-0.0681228,-0.253872,-0.0679115,0.253815,-0.185904
6.8,0.171619,-0.0718722,-0.243491,-0.0575889,0.239664,-0.182075
6.805,0.157861,-0.0760191,-0.23388,-0.0472514,0.226172,-0.17892
6.81,0.145128,-0.0808018,-0.22593,-0.0371389,0.214231,-0.177092
6.815,0.134054,-0.0863056,-0.220359,-0.0275673,0.20462,-0.177053
6.82,0.124777,-0.0929481,-0.217725,-0.0183762,0.197743,-0.179367
6.825,0.116889,-0.101364,-0.218253,-0.00896309,0.193494,-0.184531
6.83,0.110158,-0.110512,-0.220669,0.0002043,0.191003,-0.191207
6.835,0.104941,-0.118193,-0.223135,0.00765091,0.189415,-0.197066
6.84,0.101395,-0.123092,-0.224487,0.0125264,0.188148,-0.200675
6.845,0.0988358,-0.124918,-0.223754,0.0150585,0.186247,-0.201306
6.85,0.0964264,-0.124459,-0.220886,0.0161849,0.1832,-0.199385
6.855,0.0939798,-0.122671,-0.21665,0.0165647,0.179342,-0.195907
6.86,0.0919442,-0.119775,-0.21172,0.0160683,0.17532,-0.191389
6.865,0.0908885,-0.115983,-0.206871,0.0144882,0.171912,-0.1864
6.87,0.0907041,-0.113451,-0.204155,0.013133,0.170237,-0.18337
6.875,0.0908464,-0.113959,-0.204805,0.0133439,0.170694,-0.184038
6.88,0.0907013,-0.116329,-0.20703,0.014796,0.171895,-0.186691
6.885,0.0904301,-0.117521,-0.207951,0.0156411,0.172271,-0.187912
6.89,0.0905881,-0.116219,-0.206807,0.0147979,0.171701,-0.186499
6.895,0.0911574,-0.114024,-0.205181,0.0132018,0.171091,-0.184293
6.9,0.0919287,-0.112699,-0.204628,0.0119916,0.171217,-0.183208
6.905,0.0928442,-0.11191,-0.204755,0.0110078,0.171819,-0.182826
6.91,0.0937384,-0.110422,-0.204161,0.00963243,0.171992,-0.181624
6.915,0.0946136,-0.107401,-0.202014,0.00738256,0.171258,-0.178641
6.92,0.0954988,-0.104577,-0.200076,0.00524131,0.17065,-0.175891
6.925,0.0964585,-0.103426,-0.199885,0.00402288,0.171094,-0.175117
6.93,0.0974431,-0.103758,-0.201201,0.00364569,0.172422,-0.176068
6.935,0.0982617,-0.104991,-0.203253,0.00388533,0.174079,-0.177965
6.94,0.0987534,-0.107138,-0.205891,0.00484056,0.175886,-0.180727
6.945,0.098856,-0.110105,-0.208961,0.00649457,0.177718,-0.184213
6.95,0.0985904,-0.113539,-0.212129,0.00863035,0.179394,-0.188024
6.955,0.0983804,-0.11608,-0.21446,0.0102189,0.180619,-0.190838
6.96,0.0985723,-0.118092,-0.216665,0.01127,0.182002,-0.193272
6.965,0.0987323,-0.121373,-0.220106,0.0130718,0.184081,-0.197153
6.97,0.0984168,-0.125943,-0.22436,0.0158921,0.186355,-0.202247
6.975,0.0978959,-0.130158,-0.228054,0.0186263,0.188187,-0.206813
6.98,0.098102,-0.132734,-0.230836,0.0199947,0.189912,-0.209907
6.985,0.099341,-0.134582,-0.233923,0.0203463,0.19241,-0.212756
6.99,0.101154,-0.137051,-0.238205,0.020725,0.195929,-0.216654
6.995,0.103159,-0.14003,-0.243189,0.0212874,0.199964,-0.221251
7,0.104469,-0.143122,-0.247591,0.0223163,0.203262,-0.225578
7.005,0.103814,-0.146168,-0.249982,0.0244529,0.204264,-0.228717
7.01,0.100799,-0.148126,-0.248925,0.0273241,0.201913,-0.229237
7.015,0.096217,-0.148795,-0.245012,0.0303561,0.197009,-0.227365
7.02,0.0912136,-0.149238,-0.240451,0.0335003,0.191487,-0.224987
7.025,0.0869729,-0.150372,-0.237345,0.0366037,0.187245,-0.223849
7.03,0.0842426,-0.152877,-0.237119,0.0396259,0.185538,-0.225164
7.035,0.0829036,-0.156977,-0.23988,0.042766,0.186359,-0.229125
7.04,0.0825563,-0.161967,-0.244523,0.0458476,0.188839,-0.234687
7.045,0.0824663,-0.167941,-0.250408,0.049349,0.192185,-0.241534
7.05,0.082295,-0.174005,-0.2563,0.052949,0.195488,-0.248437
7.055,0.0821869,-0.178681,-0.260868,0.055711,0.198063,-0.253774
7.06,0.0822988,-0.180455,-0.262754,0.0566703,0.199216,-0.255886
7.065,0.0826041,-0.178347,-0.260951,0.0552769,0.198351,-0.253628
7.07,0.0829661,-0.174559,-0.257525,0.0528811,0.196583,-0.249464
7.075,0.083349,-0.172066,-0.255415,0.0512207,0.195585,-0.246806
7.08,0.083737,-0.171651,-0.255388,0.0507571,0.195794,-0.246551
7.085,0.0839177,-0.173378,-0.257296,0.05165,0.197,-0.24865
7.09,0.0839531,-0.176456,-0.260409,0.0534063,0.198817,-0.252223
7.095,0.0839674,-0.179184,-0.263151,0.0549732,0.200409,-0.255382
7.1,0.0838565,-0.180516,-0.264373,0.0558064,0.20105,-0.256856
7.105,0.0834356,-0.181002,-0.264437,0.0563298,0.200844,-0.257174
7.11,0.0828396,-0.182187,-0.265027,0.0573584,0.200841,-0.258199
7.115,0.0818759,-0.185118,-0.266994,0.0596071,0.20142,-0.261027
7.12,0.0802239,-0.189257,-0.269481,0.0629502,0.201902,-0.264852
7.125,0.0783576,-0.192396,-0.270754,0.0658402,0.201559,-0.2674
7.13,0.0770164,-0.193676,-0.270692,0.0673535,0.20075,-0.268103
7.135,0.0764354,-0.193295,-0.269731,0.0674691,0.199859,-0.267328
7.14,0.0762214,-0.191706,-0.267928,0.0666752,0.198695,-0.26537
7.145,0.0762931,-0.189905,-0.266198,0.0655936,0.197737,-0.263331
7.15,0.0765962,-0.189147,-0.265743,0.0649811,0.19765,-0.262631
7.155,0.0769101,-0.189226,-0.266136,0.0648453,0.198057,-0.262903
7.16,0.0770442,-0.189283,-0.266328,0.0648013,0.198246,-0.263047
7.165,0.0768805,-0.188989,-0.26587,0.0647261,0.197887,-0.262613
7.17,0.0763165,-0.189273,-0.26559,0.0652157,0.1974,-0.262615
7.175,0.0755228,-0.189494,-0.265016,0.0658011,0.19661,-0.262411
7.18,0.075014,-0.187371,-0.262385,0.0648694,0.194797,-0.259667
7.185,0.0748434,-0.181829,-0.256672,0.0617679,0.1914,-0.253168
7.19,0.0745936,-0.172191,-0.246784,0.0563477,0.185547,-0.241895
7.195,0.0739147,-0.158927,-0.232842,0.049082,0.177106,-0.226188
7.2,0.0724844,-0.144418,-0.216902,0.0415308,0.167077,-0.208608
7.205,0.0701573,-0.131716,-0.201873,0.0355408,0.157057,-0.192598
7.21,0.0677193,-0.121221,-0.18894,0.030889,0.148182,-0.179071
7.215,0.0669403,-0.110091,-0.177031,0.024913,0.140857,-0.16577
7.22,0.0687319,-0.0961819,-0.164914,0.0158483,0.134895,-0.150744
7.225,0.0718592,-0.0807529,-0.152612,0.00513479,0.129599,-0.134733
7.23,0.074361,-0.0658174,-0.140178,-0.00493266,0.123864,-0.118932
7.235,0.0752908,-0.0526253,-0.127916,-0.0130859,0.117322,-0.104236
7.24,0.075465,-0.0415336,-0.116999,-0.0195903,0.111119,-0.0915285
7.245,0.0764586,-0.0342205,-0.110679,-0.0243861,0.108044,-0.0836578
7.25,0.0790076,-0.0342005,-0.113208,-0.0258694,0.110976,-0.0851063
7.255,0.0823673,-0.044787,-0.127154,-0.021697,0.120967,-0.0992703
7.26,0.0848244,-0.0663542,-0.151179,-0.0106638,0.136256,-0.125593
7.265,0.0851482,-0.0955686,-0.180717,0.00601619,0.153497,-0.159513
7.27,0.0831164,-0.127609,-0.210725,0.0256878,0.16965,-0.195337
7.275,0.0795815,-0.157963,-0.237544,0.0452534,0.183092,-0.228346
7.28,0.0757602,-0.183806,-0.259566,0.0623802,0.193601,-0.255981
7.285,0.0722704,-0.204384,-0.276654,0.0762756,0.201452,-0.277727
7.29,0.0691248,-0.220279,-0.289404,0.087269,0.206997,-0.294266
7.295,0.0665055,-0.231969,-0.298475,0.0955304,0.210721,-0.306252
7.3,0.0646221,-0.240202,-0.304824,0.101371,0.2133,-0.314671
7.305,0.0635193,-0.245931,-0.30945,0.105315,0.215334,-0.320649
7.31,0.0635813,-0.248591,-0.312172,0.106815,0.216941,-0.323756
7.315,0.0665796,-0.247122,-0.313701,0.104236,0.219555,-0.323791
7.32,0.0756818,-0.237972,-0.313654,0.0936983,0.224783,-0.318481
7.325,0.0944779,-0.212875,-0.307353,0.0683566,0.231997,-0.300354
7.33,0.121483,-0.159671,-0.281154,0.0220481,0.232463,-0.254511
7.335,0.146572,-0.0626273,-0.2092,-0.0484657,0.205405,-0.156939
7.34,0.157099,0.092451,-0.0646484,-0.144078,0.128026,0.0160518
7.345,0.146276,0.303272,0.156995,-0.259547,-0.00618855,0.265735
7.35,0.11259,0.531743,0.419153,-0.372005,-0.176994,0.549
7.355,0.0586802,0.703817,0.645137,-0.440228,-0.338591,0.778818
7.36,-0.00768321,0.752051,0.759735,-0.429761,-0.443069,0.87283
7.365,-0.0741418,0.663365,0.737507,-0.340188,-0.468605,0.808793
7.37,-0.125546,0.485772,0.611317,-0.207977,-0.425428,0.633404
7.375,-0.148916,0.290558,0.439474,-0.0817775,-0.339707,0.421484
7.38,-0.140261,0.127523,0.267784,0.00735415,-0.235585,0.22823
7.385,-0.106562,0.0106197,0.117181,0.0553921,-0.129178,0.073786
7.39,-0.0604308,-0.0674303,-0.00699946,0.0738206,-0.0308486,-0.042972
7.395,-0.0138573,-0.120276,-0.106419,0.0774418,0.0534402,-0.130882
7.4,0.0250897,-0.157582,-0.182672,0.0764945,0.119951,-0.196446
7.405,0.0531732,-0.184387,-0.23756,0.0757562,0.167855,-0.243611
7.41,0.0713864,-0.203624,-0.27501,0.0763474,0.199992,-0.27634
7.415,0.0825378,-0.216562,-0.2991,0.077379,0.220339,-0.297717
7.42,0.0892255,-0.224385,-0.313611,0.0780344,0.232577,-0.310612
7.425,0.0932759,-0.228951,-0.322227,0.0783323,0.239891,-0.318223
7.43,0.0960132,-0.231383,-0.327396,0.0781559,0.244456,-0.322611
7.435,0.0984025,-0.232574,-0.330977,0.0774642,0.247902,-0.325366
7.44,0.10088,-0.233557,-0.334437,0.0766008,0.251331,-0.327931
7.445,0.103529,-0.234087,-0.337615,0.0753777,0.254694,-0.330072
7.45,0.106349,-0.234164,-0.340513,0.0737936,0.257996,-0.33179
7.455,0.108948,-0.234542,-0.34349,0.0725121,0.261215,-0.333727
7.46,0.110909,-0.235248,-0.346157,0.0717871,0.263887,-0.335674
7.465,0.11252,-0.235022,-0.347542,0.0707265,0.265616,-0.336343
7.47,0.11426,-0.232759,-0.347019,0.0684158,0.266319,-0.334735
7.475,0.116112,-0.229004,-0.345116,0.0651782,0.26629,-0.331468
7.48,0.118059,-0.224917,-0.342976,0.0616941,0.266179,-0.327873
7.485,0.120214,-0.221331,-0.341545,0.0583795,0.266597,-0.324976
7.49,0.12284,-0.217984,-0.340824,0.0549317,0.267696,-0.322628
7.495,0.12608,-0.213571,-0.339651,0.0505132,0.26889,-0.319403
7.5,0.129876,-0.20791,-0.337786,0.0450532,0.270005,-0.315058
7.505,0.134036,-0.202194,-0.33623,0.0393513,0.271508,-0.310859
7.51,0.1382,-0.196801,-0.335001,0.0338336,0.273202,-0.307036
7.515,0.142313,-0.191737,-0.33405,0.0285347,0.275028,-0.303563
7.52,0.14673,-0.187041,-0.333771,0.023274,0.277417,-0.300691
7.525,0.151651,-0.182364,-0.334015,0.0177323,0.280399,-0.298132
7.53,0.157059,-0.177693,-0.334752,0.0119135,0.283947,-0.29586
7.535,0.163016,-0.172944,-0.33596,0.0057323,0.288084,-0.293816
7.54,0.169764,-0.167198,-0.336961,-0.00148166,0.292558,-0.291076
7.545,0.177218,-0.159745,-0.336963,-0.0100886,0.296863,-0.286774
7.55,0.185119,-0.151024,-0.336143,-0.019685,0.300951,-0.281266
7.555,0.193142,-0.142445,-0.335587,-0.0292699,0.305262,-0.275992
7.56,0.200942,-0.135174,-0.336116,-0.0379711,0.31007,-0.272099
7.565,0.208165,-0.129708,-0.337874,-0.0452972,0.315255,-0.269958
7.57,0.214361,-0.12576,-0.340121,-0.0511541,0.32013,-0.268976
7.575,0.219522,-0.123164,-0.342686,-0.0556322,0.324591,-0.268959
7.58,0.223479,-0.121969,-0.345448,-0.0586073,0.32847,-0.269863
7.585,0.225928,-0.121135,-0.347063,-0.0605023,0.330817,-0.270314
7.59,0.226762,-0.120058,-0.34682,-0.0616056,0.331157,-0.269552
7.595,0.226069,-0.118167,-0.344236,-0.0622971,0.329266,-0.266968
7.6,0.224112,-0.115555,-0.339667,-0.0626756,0.325498,-0.262823
7.605,0.220905,-0.113076,-0.333981,-0.0622552,0.320363,-0.258108
7.61,0.216252,-0.111158,-0.32741,-0.0606763,0.313883,-0.253207
7.615,0.209493,-0.110186,-0.319679,-0.057335,0.305518,-0.248183
7.62,0.200051,-0.109451,-0.309501,-0.0523081,0.29419,-0.241882
7.625,0.188066,-0.108229,-0.296295,-0.0460939,0.279646,-0.233552
7.63,0.174011,-0.107652,-0.281663,-0.0383119,0.263083,-0.224771
7.635,0.158644,-0.108827,-0.267471,-0.028762,0.246017,-0.217255
7.64,0.143164,-0.113394,-0.256557,-0.0171876,0.230779,-0.213591
7.645,0.128783,-0.122119,-0.250901,-0.00384741,0.21921,-0.215363
7.65,0.116619,-0.133528,-0.250147,0.00976283,0.211752,-0.221515
7.655,0.107376,-0.145781,-0.253157,0.0221731,0.208154,-0.230327
7.66,0.100745,-0.156971,-0.257717,0.0324621,0.206958,-0.23942
7.665,0.0955461,-0.166589,-0.262135,0.0410168,0.206507,-0.247524
7.67,0.0909776,-0.174994,-0.265971,0.0485068,0.206085,-0.254591
7.675,0.0869095,-0.182317,-0.269227,0.0550837,0.205615,-0.260699
7.68,0.0834748,-0.187704,-0.271179,0.0601766,0.204759,-0.264936
7.685,0.0806723,-0.190281,-0.270954,0.0632828,0.203011,-0.266294
7.69,0.0786991,-0.190356,-0.269055,0.0644653,0.200776,-0.265241
7.695,0.077686,-0.188805,-0.266491,0.0641546,0.198711,-0.262865
7.7,0.077534,-0.186303,-0.263837,0.0627978,0.197091,-0.259888
7.705,0.0779806,-0.183325,-0.261306,0.0608206,0.195887,-0.256708
7.71,0.0790116,-0.180207,-0.259219,0.0584253,0.195277,-0.253703
7.715,0.0805054,-0.177421,-0.257927,0.0559544,0.195394,-0.251348
7.72,0.0818608,-0.175704,-0.257565,0.0541805,0.195968,-0.250148
7.725,0.0826221,-0.174581,-0.257203,0.0530924,0.196198,-0.24929
7.73,0.0827685,-0.172997,-0.255766,0.0520936,0.195453,-0.247546
7.735,0.082608,-0.170526,-0.253134,0.0507597,0.193841,-0.244601
7.74,0.0826057,-0.167307,-0.249912,0.0489021,0.191979,-0.240881
7.745,0.0829377,-0.1645,-0.247438,0.0470899,0.190742,-0.237832
7.75,0.0835768,-0.163215,-0.246792,0.0459793,0.190739,-0.236718
7.755,0.0843669,-0.16318,-0.247547,0.0455026,0.19163,-0.237133
7.76,0.0851884,-0.163826,-0.249015,0.0454016,0.192952,-0.238354
7.765,0.0860166,-0.165749,-0.251766,0.0460338,0.195019,-0.241053
7.77,0.0868965,-0.169679,-0.256576,0.0477946,0.198304,-0.246098
7.775,0.087961,-0.17428,-0.262241,0.049836,0.202189,-0.252025
7.78,0.089207,-0.177013,-0.266221,0.050695,0.205206,-0.255901
7.785,0.0904706,-0.177191,-0.267662,0.050068,0.206768,-0.256836
7.79,0.0914293,-0.176,-0.26743,0.0488271,0.207187,-0.256014
7.795,0.0916201,-0.175599,-0.267219,0.0484854,0.207176,-0.255661
7.8,0.0906728,-0.177337,-0.26801,0.0500358,0.207086,-0.257121
7.805,0.0891801,-0.180565,-0.269746,0.0527613,0.207226,-0.259987
7.81,0.0881337,-0.183719,-0.271853,0.0551861,0.207838,-0.263024
7.815,0.0878265,-0.186384,-0.27421,0.056902,0.209022,-0.265924
7.82,0.0879258,-0.189381,-0.277307,0.0585751,0.210867,-0.269442
7.825,0.0879269,-0.193362,-0.281289,0.0608732,0.213167,-0.27404
7.83,0.0875653,-0.197555,-0.28512,0.0635023,0.21517,-0.278672
7.835,0.0869209,-0.201655,-0.288576,0.0662417,0.216793,-0.283035
7.84,0.0860825,-0.205306,-0.291388,0.0688335,0.217933,-0.286766
7.845,0.0852238,-0.208182,-0.293406,0.0709901,0.218602,-0.289592
7.85,0.084232,-0.211084,-0.295316,0.0732381,0.219132,-0.29237
7.855,0.0832766,-0.214774,-0.298051,0.0759203,0.220159,-0.29608
7.86,0.0827325,-0.21921,-0.301943,0.0787955,0.222092,-0.300888
7.865,0.0826083,-0.223361,-0.30597,0.0812638,0.224346,-0.305609
7.87,0.0827308,-0.226354,-0.309085,0.0829207,0.226215,-0.309135
7.875,0.0829944,-0.228261,-0.311255,0.0838695,0.22762,-0.31149
7.88,0.082992,-0.229534,-0.312526,0.0846061,0.228352,-0.312959
7.885,0.0824382,-0.230798,-0.313236,0.0856553,0.228442,-0.314098
7.89,0.081531,-0.232327,-0.313858,0.0870619,0.228278,-0.31534
7.895,0.0805252,-0.234382,-0.314908,0.0888294,0.228303,-0.317132
7.9,0.0794392,-0.237111,-0.31655,0.0910319,0.228625,-0.319657
7.905,0.0781498,-0.239591,-0.317741,0.093208,0.228567,-0.321775
7.91,0.0769003,-0.240852,-0.317752,0.0946576,0.227853,-0.32251
7.915,0.0758606,-0.241539,-0.317399,0.0956543,0.227049,-0.322703
7.92,0.0752751,-0.242865,-0.31814,0.096758,0.227138,-0.323896
7.925,0.0756081,-0.245004,-0.320612,0.0978005,0.228758,-0.326558
7.93,0.0767331,-0.247534,-0.324267,0.0986118,0.231517,-0.330129
7.935,0.0777411,-0.250241,-0.327982,0.0995927,0.234244,-0.333837
7.94,0.0781219,-0.25265,-0.330772,0.100764,0.236075,-0.336838
7.945,0.0780781,-0.253876,-0.331954,0.101497,0.236732,-0.338229
7.95,0.0779696,-0.25343,-0.331399,0.101302,0.236349,-0.337651
7.955,0.0777023,-0.252179,-0.329881,0.100734,0.235318,-0.336053
7.96,0.0772165,-0.25064,-0.327857,0.100126,0.233869,-0.333995
7.965,0.076991,-0.249798,-0.326789,0.0997704,0.233123,-0.332893
7.97,0.0774367,-0.251374,-0.328811,0.100423,0.234547,-0.33497
7.975,0.0782254,-0.254249,-0.332475,0.101627,0.237118,-0.338745
7.98,0.0786776,-0.256311,-0.334988,0.102557,0.23883,-0.341387
7.985,0.07853,-0.256927,-0.335457,0.102997,0.239015,-0.342013
7.99,0.0778351,-0.256576,-0.334411,0.103196,0.23801,-0.341207
7.995,0.076809,-0.25641,-0.333219,0.103693,0.23673,-0.340423
8,0.075591,-0.257256,-0.332847,0.104884,0.235812,-0.340696
8.005,0.0744994,-0.259115,-0.333615,0.106588,0.235625,-0.342213
8.01,0.073862,-0.261356,-0.335218,0.108249,0.236182,-0.344431
8.015,0.0736707,-0.262605,-0.336276,0.109081,0.236683,-0.345764
8.02,0.0736502,-0.26229,-0.33594,0.108911,0.236477,-0.345388
8.025,0.0736519,-0.261446,-0.335098,0.108423,0.235992,-0.344415
8.03,0.0737977,-0.261117,-0.334915,0.108149,0.23597,-0.344119
8.035,0.0739543,-0.261797,-0.335751,0.108451,0.236544,-0.344995
8.04,0.074048,-0.263372,-0.33742,0.109306,0.237561,-0.346867
8.045,0.073999,-0.264787,-0.338786,0.110151,0.238321,-0.348473
8.05,0.0739281,-0.263695,-0.337623,0.109562,0.237609,-0.347171
8.055,0.0740267,-0.258852,-0.332879,0.106709,0.234927,-0.341636
8.06,0.0742166,-0.250042,-0.324259,0.101513,0.23006,-0.331572
8.065,0.0744722,-0.237004,-0.311476,0.0938377,0.222827,-0.316665
8.07,0.0743776,-0.222419,-0.296796,0.0854715,0.214297,-0.299769
8.075,0.0730494,-0.210166,-0.283215,0.0791641,0.205689,-0.284853
8.08,0.070402,-0.200957,-0.271359,0.075376,0.197316,-0.272692
8.085,0.06844,-0.191618,-0.260058,0.071117,0.189658,-0.260775
8.09,0.0692834,-0.179651,-0.248934,0.0637207,0.183723,-0.247444
8.095,0.0727307,-0.164834,-0.237565,0.0531759,0.179149,-0.232325
8.1,0.0766186,-0.149051,-0.22567,0.0418191,0.174526,-0.216345
8.105,0.0785236,-0.135873,-0.214397,0.0331109,0.169118,-0.202229
8.11,0.0780391,-0.126444,-0.204483,0.0279466,0.163114,-0.191061
8.115,0.0770288,-0.119148,-0.196176,0.0243173,0.157735,-0.182052
8.12,0.0781965,-0.114685,-0.192882,0.0210667,0.156507,-0.177574
8.125,0.0826771,-0.116061,-0.198738,0.019274,0.162475,-0.181749
8.13,0.0887815,-0.125482,-0.214264,0.0211892,0.174963,-0.196152
8.135,0.0933294,-0.143726,-0.237055,0.0290964,0.190748,-0.219844
8.14,0.0941118,-0.16974,-0.263852,0.043664,0.20667,-0.250334
8.145,0.0911874,-0.199918,-0.291106,0.0627759,0.220717,-0.283493
8.15,0.0862679,-0.22861,-0.314878,0.082181,0.231601,-0.313782
8.155,0.0811044,-0.252153,-0.333257,0.098755,0.239232,-0.337987
8.16,0.0765389,-0.270602,-0.347141,0.112042,0.244612,-0.356654
8.165,0.0729665,-0.285026,-0.357992,0.122432,0.248814,-0.371247
8.17,0.0708525,-0.295743,-0.366596,0.129841,0.252561,-0.382401
8.175,0.0702302,-0.303258,-0.373488,0.134538,0.256181,-0.390719
8.18,0.0709548,-0.308503,-0.379458,0.137148,0.260046,-0.397194
8.185,0.073854,-0.312143,-0.385997,0.137576,0.265495,-0.403071
8.19,0.0811901,-0.311714,-0.392904,0.133093,0.273718,-0.406811
8.195,0.0963903,-0.299317,-0.395707,0.117159,0.284112,-0.401272
8.2,0.121941,-0.263167,-0.385108,0.0815365,0.292745,-0.374282
8.205,0.152595,-0.189832,-0.342427,0.0214986,0.285801,-0.307299
8.21,0.175214,-0.0659624,-0.241176,-0.0630764,0.240403,-0.177326
8.215,0.178467,0.115771,-0.0626958,-0.169878,0.139235,0.0306431
8.22,0.158186,0.341331,0.183145,-0.288396,-0.0144101,0.302806
8.225,0.114148,0.554887,0.440738,-0.386267,-0.188557,0.574824
8.23,0.0512704,0.678599,0.627329,-0.42139,-0.332587,0.753978
8.235,-0.0197639,0.665534,0.685298,-0.372835,-0.407067,0.779902
8.24,-0.0838883,0.531956,0.615844,-0.258692,-0.40399,0.662682
8.245,-0.125458,0.341143,0.466601,-0.124526,-0.341825,0.466351
8.25,-0.135233,0.156304,0.291537,-0.0121656,-0.246396,0.258561
8.255,-0.115085,0.00977097,0.124856,0.0608033,-0.13853,0.0777271
8.26,-0.0757612,-0.0958793,-0.0201181,0.0990966,-0.0321255,-0.0669711
8.265,-0.030004,-0.169361,-0.139357,0.115103,0.0631348,-0.178238
8.27,0.0124374,-0.218918,-0.231356,0.119212,0.140754,-0.259966
8.275,0.0461912,-0.252219,-0.298411,0.11895,0.198956,-0.317906
8.28,0.0698327,-0.27586,-0.345693,0.11895,0.239904,-0.358854
8.285,0.0845512,-0.293869,-0.37842,0.120849,0.267296,-0.388146
8.29,0.0925524,-0.307787,-0.40034,0.124266,0.284571,-0.408837
8.295,0.0961992,-0.317243,-0.413443,0.12762,0.294242,-0.421861
8.3,0.0977602,-0.321791,-0.419552,0.129344,0.29867,-0.428014
8.305,0.0988334,-0.32309,-0.421924,0.129475,0.300659,-0.430134
8.31,0.100171,-0.323109,-0.42328,0.128713,0.302215,-0.430928
8.315,0.101866,-0.322708,-0.424574,0.127503,0.30394,-0.431444
8.32,0.103561,-0.322041,-0.425603,0.126139,0.305513,-0.431652
8.325,0.104963,-0.320757,-0.42572,0.124589,0.30639,-0.430978
8.33,0.106088,-0.318923,-0.425011,0.12288,0.30663,-0.42951
8.335,0.107074,-0.317208,-0.424282,0.121321,0.306778,-0.428099
8.34,0.10814,-0.315341,-0.423481,0.119628,0.306931,-0.426559
8.345,0.109891,-0.31294,-0.422831,0.11723,0.307567,-0.424797
8.35,0.112717,-0.309708,-0.422425,0.113733,0.308964,-0.422697
8.355,0.116203,-0.304849,-0.421052,0.108915,0.310184,-0.419099
8.36,0.119644,-0.299544,-0.419188,0.103865,0.311095,-0.41496
8.365,0.122898,-0.296384,-0.419282,0.100162,0.313027,-0.41319
8.37,0.126103,-0.295249,-0.421352,0.0976562,0.316073,-0.413729
8.375,0.129509,-0.293614,-0.423123,0.0947463,0.319062,-0.413809
8.38,0.13327,-0.289958,-0.423227,0.0904636,0.321294,-0.411757
8.385,0.137683,-0.284432,-0.422114,0.0847256,0.323199,-0.407924
8.39,0.142882,-0.277177,-0.420059,0.0775354,0.325014,-0.40255
8.395,0.148526,-0.269559,-0.418085,0.0698785,0.327133,-0.397011
8.4,0.154289,-0.263093,-0.417382,0.0628179,0.330055,-0.392872
8.405,0.160496,-0.257046,-0.417541,0.055743,0.33373,-0.389473
8.41,0.167294,-0.250442,-0.417736,0.0480056,0.337767,-0.385772
8.415,0.174681,-0.243213,-0.417894,0.0395666,0.342123,-0.38169
8.42,0.182412,-0.236674,-0.419086,0.0313282,0.347275,-0.378603
8.425,0.190266,-0.230307,-0.420573,0.0231175,0.352668,-0.375786
8.43,0.197973,-0.222665,-0.420637,0.0142557,0.357155,-0.37141
8.435,0.204968,-0.214662,-0.419631,0.00559691,0.360612,-0.366209
8.44,0.210772,-0.208119,-0.418891,-0.0015314,0.363536,-0.362004
8.445,0.215461,-0.202409,-0.41787,-0.00753534,0.365654,-0.358119
8.45,0.219416,-0.196531,-0.415947,-0.013213,0.366827,-0.353614
8.455,0.222468,-0.192885,-0.415353,-0.01708,0.368246,-0.351166
8.46,0.224075,-0.193004,-0.417079,-0.0179384,0.37017,-0.352231
8.465,0.224284,-0.194599,-0.418883,-0.017139,0.371332,-0.354193
8.47,0.223209,-0.195543,-0.418753,-0.0159731,0.370637,-0.354664
8.475,0.22041,-0.195202,-0.415612,-0.0145533,0.367207,-0.352654
8.48,0.21558,-0.194305,-0.409885,-0.0122831,0.361112,-0.348829
8.485,0.208638,-0.19443,-0.403068,-0.00820309,0.353169,-0.344966
8.49,0.199457,-0.196626,-0.396083,-0.00163466,0.343835,-0.342201
8.495,0.188245,-0.201394,-0.389639,0.00759162,0.333641,-0.341233
8.5,0.175704,-0.208371,-0.384075,0.01886,0.323189,-0.342049
8.505,0.162268,-0.216217,-0.378485,0.031147,0.312204,-0.343351
8.51,0.148289,-0.225083,-0.373372,0.044337,0.301181,-0.345518
8.515,0.134477,-0.235711,-0.370188,0.0584476,0.291368,-0.349816
8.52,0.122177,-0.245429,-0.367606,0.0711592,0.282776,-0.353936
8.525,0.112487,-0.252229,-0.364717,0.0806799,0.275514,-0.356194
8.53,0.105205,-0.258346,-0.363551,0.088416,0.270636,-0.359052
8.535,0.0996627,-0.265189,-0.364852,0.0955666,0.268187,-0.363754
8.54,0.0954751,-0.27181,-0.367285,0.101807,0.267174,-0.368981
8.545,0.0927087,-0.277185,-0.369894,0.106507,0.267084,-0.373591
8.55,0.0910333,-0.281439,-0.372472,0.10993,0.267605,-0.377535
8.555,0.089961,-0.285059,-0.37502,0.11264,0.268457,-0.381097
8.56,0.0892267,-0.28798,-0.377206,0.11475,0.269295,-0.384045
8.565,0.0884952,-0.289857,-0.378352,0.116256,0.269534,-0.38579
8.57,0.0877597,-0.289943,-0.377702,0.11673,0.268735,-0.385465
8.575,0.087028,-0.288428,-0.375456,0.116278,0.267015,-0.383294
8.58,0.0862281,-0.286713,-0.372941,0.11575,0.265101,-0.380851
8.585,0.0857275,-0.286246,-0.371974,0.11577,0.264254,-0.380024
8.59,0.0858555,-0.286616,-0.372472,0.115909,0.264615,-0.380524
8.595,0.0866065,-0.285937,-0.372544,0.115084,0.26509,-0.380174
8.6,0.0873397,-0.283502,-0.370842,0.113254,0.264531,-0.377786
8.605,0.0876162,-0.279299,-0.366916,0.110668,0.262424,-0.373092
8.61,0.087858,-0.273689,-0.361547,0.10729,0.259464,-0.366754
8.615,0.0885733,-0.268295,-0.356869,0.103763,0.257176,-0.360938
8.62,0.0899103,-0.26471,-0.354621,0.100921,0.25665,-0.357571
8.625,0.0914869,-0.263167,-0.354654,0.0991196,0.25758,-0.356699
8.63,0.0926277,-0.262582,-0.355209,0.098123,0.258559,-0.356682
8.635,0.0929462,-0.262328,-0.355275,0.0977927,0.25878,-0.356573
8.64,0.0927271,-0.261489,-0.354216,0.0974344,0.258042,-0.355477
8.645,0.0927303,-0.259148,-0.351878,0.096081,0.256695,-0.352776
8.65,0.0931892,-0.257026,-0.350215,0.0945911,0.255999,-0.35059
8.655,0.0937948,-0.257867,-0.351661,0.0947268,0.257184,-0.351911
8.66,0.0939065,-0.262338,-0.356245,0.0972439,0.259895,-0.357139
8.665,0.0934108,-0.268335,-0.361746,0.100993,0.262785,-0.363777
8.67,0.0924293,-0.273531,-0.365961,0.104559,0.264651,-0.369211
8.675,0.0911494,-0.275735,-0.366884,0.10657,0.264446,-0.371016
8.68,0.0901139,-0.274584,-0.364698,0.106504,0.262586,-0.36909
8.685,0.0897172,-0.272803,-0.36252,0.105704,0.261099,-0.366804
8.69,0.0897239,-0.27293,-0.362654,0.105774,0.26118,-0.366954
8.695,0.0895271,-0.275575,-0.365102,0.107415,0.26248,-0.369895
8.7,0.0886802,-0.279192,-0.367873,0.109992,0.263591,-0.373583
8.705,0.0875578,-0.282784,-0.370342,0.112714,0.264368,-0.377083
8.71,0.0867029,-0.286034,-0.372737,0.115084,0.265257,-0.380341
8.715,0.0858443,-0.288975,-0.37482,0.117278,0.265964,-0.383242
8.72,0.0847979,-0.291571,-0.376369,0.11938,0.266255,-0.385635
8.725,0.0836343,-0.294461,-0.378096,0.121721,0.26658,-0.388301
8.73,0.082512,-0.298724,-0.381236,0.12483,0.267745,-0.392575
8.735,0.0816306,-0.304139,-0.38577,0.128465,0.269854,-0.398319
8.74,0.0810445,-0.308499,-0.389544,0.131321,0.271694,-0.403015
8.745,0.0808898,-0.309659,-0.390549,0.13208,0.272185,-0.404265
8.75,0.081181,-0.308713,-0.389894,0.131366,0.271975,-0.403341
8.755,0.0815211,-0.308049,-0.38957,0.130786,0.271985,-0.402771
8.76,0.0814718,-0.308201,-0.389673,0.130902,0.272016,-0.402918
8.765,0.0808781,-0.309175,-0.390053,0.131807,0.271892,-0.403699
8.77,0.0801284,-0.311217,-0.391345,0.133419,0.272205,-0.405624
8.775,0.0796306,-0.313815,-0.393446,0.135206,0.273131,-0.408337
8.78,0.0791977,-0.316502,-0.3957,0.137008,0.274182,-0.411189
8.785,0.0789192,-0.318219,-0.397138,0.13816,0.274852,-0.413011
8.79,0.0790513,-0.317991,-0.397042,0.137952,0.274872,-0.412824
8.795,0.0797804,-0.315907,-0.395688,0.136328,0.274512,-0.41084
8.8,0.0809527,-0.31346,-0.394413,0.134238,0.274452,-0.40869
8.805,0.0822791,-0.313049,-0.395328,0.133235,0.275747,-0.408982
8.81,0.0833645,-0.31552,-0.398884,0.134035,0.278426,-0.412461
8.815,0.0839034,-0.319508,-0.403412,0.136026,0.281351,-0.417378
8.82,0.0837454,-0.323606,-0.407351,0.138483,0.283534,-0.422018
8.825,0.0827813,-0.327359,-0.41014,0.141207,0.284588,-0.425795
8.83,0.0811798,-0.330933,-0.412113,0.144195,0.284803,-0.428998
8.835,0.0798083,-0.333219,-0.413028,0.146307,0.284539,-0.430846
8.84,0.0791547,-0.333432,-0.412586,0.146807,0.283907,-0.430714
8.845,0.0791847,-0.331446,-0.410631,0.145643,0.282795,-0.428438
8.85,0.079712,-0.329174,-0.408886,0.144027,0.282092,-0.426119
8.855,0.0805737,-0.328532,-0.409106,0.143159,0.282717,-0.425876
8.86,0.0818017,-0.327872,-0.409674,0.142069,0.283753,-0.425822
8.865,0.0832624,-0.326391,-0.409654,0.14037,0.284585,-0.424956
8.87,0.0843167,-0.325558,-0.409875,0.139281,0.285321,-0.424602
8.875,0.0849665,-0.32491,-0.409876,0.138531,0.285697,-0.424228
8.88,0.0859384,-0.3224,-0.408338,0.136521,0.28537,-0.421891
8.885,0.0875225,-0.316939,-0.404461,0.132453,0.284047,-0.4165
8.89,0.0892237,-0.309088,-0.398312,0.126939,0.281479,-0.408417
8.895,0.0902752,-0.299754,-0.390029,0.120943,0.277304,-0.398246
8.9,0.0902307,-0.290018,-0.380249,0.115347,0.271631,-0.386978
8.905,0.0891675,-0.281387,-0.370554,0.110978,0.26542,-0.376398
8.91,0.0874194,-0.275459,-0.362878,0.108565,0.259979,-0.368544
8.915,0.086091,-0.269672,-0.355763,0.10599,0.255104,-0.361095
8.92,0.0865623,-0.260162,-0.346724,0.100228,0.250158,-0.350385
8.925,0.0884386,-0.246634,-0.335073,0.0913343,0.244514,-0.335849
8.93,0.0902088,-0.230918,-0.321127,0.0812384,0.237484,-0.318723
8.935,0.0907722,-0.214596,-0.305368,0.0714894,0.228711,-0.300201
8.94,0.0904625,-0.19922,-0.289682,0.0627909,0.219477,-0.282267
8.945,0.0906993,-0.186087,-0.276787,0.0550722,0.212168,-0.26724
8.95,0.0921274,-0.17775,-0.269877,0.0494342,0.209003,-0.258438
8.955,0.0946384,-0.178605,-0.273243,0.0484781,0.212397,-0.260875
8.96,0.0979844,-0.190328,-0.288312,0.0533144,0.223028,-0.276343
8.965,0.101575,-0.21062,-0.312195,0.0629572,0.23889,-0.301847
8.97,0.104284,-0.236502,-0.340786,0.0763362,0.256961,-0.333297
8.975,0.105224,-0.264811,-0.370035,0.0921374,0.274391,-0.366529
8.98,0.104091,-0.292122,-0.396214,0.10856,0.288851,-0.397411
8.985,0.101382,-0.315688,-0.417069,0.123729,0.299328,-0.423057
8.99,0.0981099,-0.334765,-0.432875,0.136633,0.306564,-0.443197
8.995,0.0951948,-0.349226,-0.444421,0.146665,0.311547,-0.458212
9,0.0930436,-0.359178,-0.452222,0.153653,0.314809,-0.468462
9.005,0.0916587,-0.365187,-0.456846,0.157922,0.316679,-0.474601
9.01,0.0909829,-0.368081,-0.459064,0.159983,0.317569,-0.477552
9.015,0.0909749,-0.36925,-0.460225,0.160662,0.318235,-0.478897
9.02,0.09285,-0.370365,-0.463215,0.160223,0.321044,-0.481268
9.025,0.0998302,-0.367889,-0.467719,0.154764,0.327675,-0.482439
9.03,0.116248,-0.352037,-0.468285,0.136132,0.33748,-0.473613
9.035,0.144842,-0.310009,-0.454851,0.0953596,0.346232,-0.441592
9.04,0.180094,-0.225287,-0.405381,0.0260924,0.338024,-0.364116
9.045,0.207943,-0.0812815,-0.289224,-0.0731278,0.287039,-0.213911
9.05,0.214628,0.126213,-0.0884154,-0.196785,0.174962,0.0218223
9.055,0.19232,0.368893,0.176573,-0.324016,0.00909106,0.314925
9.06,0.14107,0.576371,0.435301,-0.414214,-0.169874,0.584088
9.065,0.0700847,0.670405,0.60032,-0.427522,-0.306131,0.733653
9.07,-0.00465693,0.617737,0.622394,-0.353962,-0.362028,0.71599
9.075,-0.0649373,0.450428,0.515366,-0.222563,-0.335038,0.557601
9.08,-0.0975627,0.238936,0.336499,-0.0816221,-0.250606,0.332228
9.085,-0.0983502,0.0454658,0.143816,0.0305328,-0.139815,0.109282
9.09,-0.0724227,-0.0999596,-0.0275369,0.0995249,-0.0259148,-0.0736101
9.095,-0.0309273,-0.194298,-0.163371,0.130034,0.0764661,-0.2065
9.1,0.0140259,-0.249232,-0.263258,0.135796,0.16009,-0.295886
9.105,0.053182,-0.280874,-0.334056,0.131458,0.223572,-0.35503
9.11,0.0820756,-0.301629,-0.383704,0.126759,0.268918,-0.395677
9.115,0.100508,-0.317523,-0.418031,0.125293,0.299379,-0.424672
9.12,0.110633,-0.330809,-0.441442,0.127119,0.31874,-0.445859
9.125,0.115763,-0.340649,-0.456412,0.129838,0.330345,-0.460183
9.13,0.118605,-0.346804,-0.465409,0.131751,0.33718,-0.468931
9.135,0.120337,-0.350422,-0.470759,0.132839,0.341269,-0.474109
9.14,0.121659,-0.351195,-0.472854,0.132523,0.343242,-0.475765
9.145,0.123002,-0.349554,-0.472556,0.130799,0.343846,-0.474645
9.15,0.124767,-0.345803,-0.47057,0.127615,0.343718,-0.471333
9.155,0.12716,-0.339988,-0.467148,0.122876,0.343124,-0.466
9.16,0.12991,-0.333961,-0.463871,0.117809,0.34282,-0.460629
9.165,0.132341,-0.329279,-0.46162,0.113702,0.342923,-0.456625
9.17,0.134076,-0.325999,-0.460075,0.110807,0.343034,-0.45384
9.175,0.135301,-0.323737,-0.459038,0.108794,0.343142,-0.451935
9.18,0.136151,-0.322528,-0.458678,0.107605,0.343425,-0.451029
9.185,0.1371,-0.321551,-0.45865,0.106493,0.343956,-0.450449
9.19,0.138784,-0.319618,-0.458402,0.104404,0.344785,-0.449189
9.195,0.141228,-0.316392,-0.45762,0.101131,0.345745,-0.446876
9.2,0.144379,-0.3116,-0.455979,0.0965454,0.346617,-0.443162
9.205,0.148146,-0.30481,-0.452956,0.0904496,0.347046,-0.437496
9.21,0.15241,-0.296097,-0.448508,0.0829575,0.34694,-0.429898
9.215,0.156898,-0.28632,-0.443218,0.0747219,0.346477,-0.421199
9.22,0.161446,-0.276848,-0.438293,0.0666273,0.346259,-0.412887
