Time,Lead I,Lead II,Lead III,aVR,aVL,aVF
0,-0.0942385,-0.00868842,0.0855501,0.0594249,-0.103801,0.0443761
0.005,-0.0806945,-0.0169371,0.0637574,0.0563676,-0.0833993,0.0270317
0.01,-0.0683551,-0.0223488,0.0460063,0.0523679,-0.0660266,0.0136587
0.015,-0.0618525,-0.024295,0.0375575,0.0497373,-0.0573944,0.00765706
0.02,-0.0635092,-0.0230131,0.0404961,0.0499536,-0.0600475,0.0100938
0.025,-0.0711089,-0.0206315,0.0504775,0.0529663,-0.0701979,0.0172316
0.03,-0.0786263,-0.0190538,0.0595725,0.0563956,-0.0797891,0.0233935
0.035,-0.0795429,-0.0180645,0.0614783,0.0563536,-0.0814186,0.025065
0.04,-0.0728691,-0.0167256,0.0561435,0.0517275,-0.0744854,0.0227579
0.045,-0.0633616,-0.0148383,0.0485233,0.0451487,-0.0645967,0.0194481
0.05,-0.056075,-0.0123732,0.0437018,0.0395186,-0.0576061,0.0180876
0.055,-0.0524482,-0.0104885,0.0419597,0.0363365,-0.0545064,0.0181699
0.06,-0.0522031,-0.00900294,0.0432001,0.0353373,-0.055081,0.0197437
0.065,-0.0542887,-0.00573116,0.0485576,0.0346525,-0.0593783,0.0247258
0.07,-0.0558021,0.000234141,0.0560363,0.0320822,-0.0645699,0.0324877
0.075,-0.0539437,0.00747552,0.0614192,0.0268284,-0.0666048,0.0397764
0.08,-0.0497108,0.0135235,0.0632343,0.0208927,-0.0652089,0.0443161
0.085,-0.0459466,0.0180982,0.0640448,0.0160783,-0.0635035,0.0474252
0.09,-0.0419641,0.0230242,0.0649884,0.010935,-0.061749,0.0508141
0.095,-0.0362982,0.0292675,0.0655657,0.00405918,-0.0588111,0.054752
0.1,-0.0296248,0.036377,0.0660019,-0.00389836,-0.0552101,0.0591084
0.105,-0.0217892,0.0436608,0.06545,-0.0126276,-0.0503676,0.0629952
0.11,-0.0127289,0.0497822,0.062511,-0.0213927,-0.0434398,0.0648325
0.115,-0.00489302,0.054235,0.059128,-0.0284876,-0.0369626,0.0654502
0.12,0.000376345,0.0584441,0.0580677,-0.03396,-0.0333081,0.0672681
0.125,0.00438639,0.0625072,0.0581209,-0.038621,-0.0310236,0.0696446
0.13,0.0105184,0.0657529,0.0552345,-0.0440353,-0.0258168,0.0698521
0.135,0.021588,0.0666734,0.0450854,-0.0509577,-0.0135662,0.064524
0.14,0.0346344,0.0638176,0.0291832,-0.0568413,0.00314726,0.053694
0.145,0.0433587,0.0586312,0.0152725,-0.0588839,0.0162155,0.0426683
0.15,0.0452854,0.0543242,0.00903871,-0.0575096,0.020927,0.0365825
0.155,0.0428515,0.0529021,0.0100506,-0.0552833,0.0189376,0.0363457
0.16,0.0401327,0.0538408,0.0137081,-0.0542556,0.0152562,0.0389994
0.165,0.0388453,0.0558631,0.0170178,-0.0546799,0.0126021,0.0420778
0.17,0.0383961,0.0576078,0.0192118,-0.0554279,0.0110761,0.0443518
0.175,0.0365286,0.0581268,0.0215982,-0.0546493,0.00862006,0.0460292
0.18,0.0311683,0.0583505,0.0271822,-0.0516837,0.00230136,0.0493823
0.185,0.0220578,0.0600186,0.0379608,-0.0473868,-0.00918161,0.0565684
0.19,0.0103589,0.0632131,0.0528541,-0.0424768,-0.0245346,0.0670114
0.195,-0.00200046,0.066623,0.0686235,-0.0373098,-0.0407747,0.0780845
0.2,-0.0139551,0.0690516,0.0830067,-0.03181,-0.0559809,0.0877909
0.205,-0.0250805,0.0683907,0.0934712,-0.0250052,-0.0684458,0.093451
0.21,-0.0348369,0.0640287,0.0988656,-0.0168539,-0.0771931,0.094047
0.215,-0.0445043,0.0565246,0.101029,-0.0069399,-0.0840236,0.0909635
0.22,-0.0562904,0.0466782,0.102969,0.00554964,-0.0919482,0.0863985
0.225,-0.0683234,0.0361352,0.104459,0.0185839,-0.0997557,0.0811719
0.23,-0.0775467,0.026023,0.10357,0.0297472,-0.104568,0.0748203
0.235,-0.0837166,0.0173153,0.101032,0.0383368,-0.106665,0.0683278
0.24,-0.0882344,0.0101305,0.0983649,0.0450933,-0.107733,0.0626398
0.245,-0.0926611,0.00385543,0.0965165,0.051272,-0.109222,0.0579498
0.25,-0.0974663,-0.00193985,0.0955264,0.0573921,-0.111424,0.0540322
0.255,-0.0996695,-0.00711053,0.092559,0.0616494,-0.110983,0.0493336
0.26,-0.0959782,-0.0107011,0.0852771,0.0615912,-0.104648,0.0430565
0.265,-0.0902196,-0.0122532,0.0779664,0.0591626,-0.0971022,0.0379395
0.27,-0.0892871,-0.0128511,0.076436,0.0589695,-0.0956803,0.0367108
0.275,-0.0950513,-0.0122945,0.0827568,0.0619761,-0.102658,0.0406814
0.28,-0.103867,-0.00954019,0.0943272,0.0654759,-0.114428,0.0489518
0.285,-0.111041,-0.00483921,0.106202,0.0669035,-0.125425,0.0585217
0.29,-0.113475,0.000417829,0.113892,0.0652733,-0.13127,0.065997
0.295,-0.11271,0.00514828,0.117859,0.0621009,-0.133119,0.071018
0.3,-0.112761,0.00992481,0.122686,0.0593726,-0.135936,0.0765629
0.305,-0.114921,0.015558,0.130479,0.0573671,-0.141681,0.0843144
0.31,-0.117886,0.0205936,0.13848,0.0561717,-0.148013,0.0918409
0.315,-0.11829,0.0235499,0.14184,0.0546981,-0.150186,0.0954878
0.32,-0.112287,0.0243811,0.136668,0.0507523,-0.143734,0.0929817
0.325,-0.102958,0.0236782,0.126637,0.0457724,-0.132557,0.0867842
0.33,-0.0971619,0.0225238,0.119686,0.0430923,-0.125197,0.0821046
0.335,-0.0957404,0.0216437,0.117384,0.0427797,-0.123047,0.0802677
0.34,-0.096038,0.0214192,0.117457,0.0430812,-0.123261,0.0801803
0.345,-0.0968258,0.0231124,0.119938,0.0425584,-0.125149,0.0825903
0.35,-0.0984989,0.026436,0.124935,0.0416055,-0.128999,0.0873939
0.355,-0.101421,0.028946,0.130367,0.0418433,-0.133823,0.0919793
0.36,-0.103646,0.0287626,0.132409,0.0432339,-0.136286,0.0930522
0.365,-0.102789,0.026177,0.128966,0.0442322,-0.133804,0.0895721
0.37,-0.100073,0.0215878,0.12166,0.0453132,-0.128017,0.0827043
0.375,-0.0979419,0.0154064,0.113348,0.0476518,-0.121988,0.0743366
0.38,-0.0986619,0.00946676,0.108129,0.0514968,-0.119391,0.0678937
0.385,-0.104032,0.00564632,0.109679,0.0568032,-0.123386,0.0665829
0.39,-0.111999,0.00490673,0.116905,0.0618295,-0.132158,0.0703283
0.395,-0.118076,0.00597903,0.124055,0.0647192,-0.139794,0.0750752
0.4,-0.119211,0.00618732,0.125398,0.065254,-0.141225,0.0759708
0.405,-0.114384,0.00414083,0.118525,0.0636489,-0.13447,0.070821
0.41,-0.105523,0.000755494,0.106279,0.0604875,-0.122284,0.0617961
0.415,-0.0976513,-0.00252323,0.095128,0.0578357,-0.111301,0.0534654
0.42,-0.0940364,-0.00585905,0.0881774,0.0576747,-0.105201,0.0475265
0.425,-0.093071,-0.0101558,0.0829152,0.059598,-0.101606,0.0420076
0.43,-0.091929,-0.0161571,0.0757719,0.0624035,-0.0968222,0.0344186
0.435,-0.092416,-0.0221345,0.0702815,0.0661357,-0.0939334,0.0277977
0.44,-0.0983315,-0.0260821,0.0722495,0.0718302,-0.098485,0.0266548
0.445,-0.108975,-0.0271178,0.0818574,0.0785733,-0.110177,0.0316039
0.45,-0.120474,-0.0259552,0.0945186,0.0845408,-0.124126,0.0395851
0.455,-0.129094,-0.0246348,0.104459,0.0887555,-0.134842,0.0460867
0.46,-0.132178,-0.025208,0.10697,0.090867,-0.138073,0.0472056
0.465,-0.129759,-0.0276183,0.102141,0.0908617,-0.133887,0.0430255
0.47,-0.12492,-0.0312744,0.0936457,0.0901788,-0.126189,0.0360101
0.475,-0.120652,-0.0361187,0.0845329,0.0905114,-0.118463,0.0279519
0.48,-0.116076,-0.0402693,0.0758067,0.090266,-0.110783,0.0205175
0.485,-0.11103,-0.0426164,0.0684141,0.088708,-0.103602,0.0148943
0.49,-0.108435,-0.0444175,0.0640174,0.0882494,-0.0995653,0.011316
0.495,-0.108633,-0.0465192,0.062114,0.0895773,-0.0985809,0.00900361
0.5,-0.109313,-0.0483616,0.0609511,0.0910332,-0.0983018,0.00726857
0.505,-0.109425,-0.0486766,0.0607483,0.0912799,-0.0982495,0.00696962
0.51,-0.109162,-0.0474107,0.0617516,0.0903975,-0.0986772,0.00827972
0.515,-0.109082,-0.0463229,0.0627592,0.089723,-0.0992125,0.00948952
0.52,-0.109985,-0.0478919,0.0620933,0.0911504,-0.0993495,0.00819916
0.525,-0.111049,-0.0525762,0.0584727,0.094469,-0.0978733,0.00340437
0.53,-0.111743,-0.0580293,0.0537139,0.0980181,-0.0955267,-0.00249147
0.535,-0.111575,-0.0609346,0.0506404,0.0995983,-0.093655,-0.00594336
0.54,-0.11125,-0.0586503,0.0526001,0.0980922,-0.0945991,-0.00349313
0.545,-0.112735,-0.0507114,0.062024,0.094366,-0.100897,0.00653133
0.55,-0.114892,-0.0382486,0.076643,0.0884155,-0.110583,0.022167
0.555,-0.113945,-0.0227156,0.091229,0.0789008,-0.118457,0.0395562
0.56,-0.109798,-0.00652976,0.103269,0.067162,-0.123014,0.0558521
0.565,-0.106526,0.00778793,0.114314,0.0570066,-0.127502,0.0704957
0.57,-0.107415,0.0192553,0.12667,0.0508988,-0.135149,0.08425
0.575,-0.110807,0.0299152,0.140722,0.0467027,-0.14522,0.0985172
0.58,-0.110237,0.0419958,0.152232,0.0393988,-0.151536,0.112138
0.585,-0.103875,0.0562969,0.160172,0.0274694,-0.152448,0.124978
0.59,-0.0972009,0.0717472,0.168948,0.0146956,-0.153661,0.138965
0.595,-0.0952738,0.0859148,0.181189,0.00540344,-0.159616,0.154212
0.6,-0.0986186,0.0973046,0.195923,0.000758603,-0.170054,0.169295
0.605,-0.104061,0.105111,0.209172,-0.000606628,-0.180845,0.181452
0.61,-0.105898,0.106754,0.212652,-0.000494141,-0.183914,0.184409
0.615,-0.10205,0.0983407,0.200391,0.00214168,-0.174614,0.172473
0.62,-0.0970873,0.0780796,0.175167,0.0109741,-0.157186,0.146212
0.625,-0.0961852,0.0483733,0.144559,0.0276042,-0.138993,0.111389
0.63,-0.0989217,0.0147037,0.113625,0.0486233,-0.122714,0.0740908
0.635,-0.100956,-0.0164724,0.0844837,0.0677973,-0.107064,0.0392663
0.64,-0.101372,-0.0416809,0.0596912,0.0825916,-0.0929899,0.0103982
0.645,-0.103492,-0.0614175,0.0420749,0.0952107,-0.0840433,-0.0111674
0.65,-0.108597,-0.0772111,0.031386,0.107276,-0.0808193,-0.0264571
0.655,-0.113225,-0.089488,0.0237372,0.117036,-0.0790752,-0.0379612
0.66,-0.113962,-0.0991033,0.0148588,0.123013,-0.0743747,-0.0486386
0.665,-0.111095,-0.106061,0.00503367,0.125375,-0.0670468,-0.0583282
0.67,-0.106117,-0.109537,-0.00341994,0.124508,-0.0592923,-0.0652158
0.675,-0.100627,-0.11068,-0.0100534,0.121998,-0.0522926,-0.0697056
0.68,-0.0936105,-0.109612,-0.0160019,0.117331,-0.0448073,-0.0725234
0.685,-0.0815221,-0.100573,-0.0190509,0.105133,-0.0360678,-0.0690648
0.69,-0.0599053,-0.0699643,-0.010059,0.0749802,-0.0287788,-0.0462015
0.695,-0.0320475,0.00231448,0.034362,0.0171664,-0.0383415,0.0211752
0.7,-0.0124653,0.134621,0.147086,-0.0705266,-0.0921171,0.162644
0.705,-0.0151154,0.332437,0.347553,-0.183206,-0.209387,0.392592
0.71,-0.0458066,0.577283,0.623089,-0.306848,-0.386187,0.693035
0.715,-0.103097,0.81207,0.915167,-0.409326,-0.587894,0.99722
0.72,-0.177763,0.95443,1.13219,-0.448409,-0.756303,1.20471
0.725,-0.254926,0.949862,1.20479,-0.401221,-0.842766,1.24399
0.73,-0.317363,0.812413,1.12978,-0.285817,-0.835506,1.12132
0.735,-0.350631,0.608364,0.958994,-0.148802,-0.756112,0.904914
0.74,-0.348832,0.405806,0.754638,-0.0328939,-0.637088,0.669982
0.745,-0.317058,0.24242,0.559478,0.0430927,-0.506068,0.462976
0.75,-0.267248,0.126542,0.39379,0.0812369,-0.38165,0.300413
0.755,-0.211735,0.0501579,0.261893,0.0932863,-0.273449,0.180162
0.76,-0.159364,-0.000381593,0.158983,0.0922293,-0.183798,0.0915684
0.765,-0.118922,-0.0359423,0.0829796,0.0894108,-0.116568,0.027157
0.77,-0.0943101,-0.0617724,0.0325376,0.0901142,-0.0732355,-0.0168787
0.775,-0.0819402,-0.0797645,0.00217572,0.0933602,-0.0485643,-0.0447959
0.78,-0.0766605,-0.0918864,-0.0152258,0.0973106,-0.0354693,-0.0618412
0.785,-0.0739745,-0.10139,-0.027415,0.101246,-0.0268811,-0.0743653
0.79,-0.0694544,-0.109808,-0.0403536,0.103497,-0.0168014,-0.0866958
0.795,-0.0621006,-0.116286,-0.0541853,0.102991,-0.00456987,-0.0984216
0.8,-0.0527108,-0.119376,-0.0666655,0.0993545,0.00805677,-0.107411
0.805,-0.0426083,-0.119161,-0.0765529,0.0933976,0.0195979,-0.112996
0.81,-0.0364641,-0.116948,-0.0804838,0.0885724,0.0254147,-0.113987
0.815,-0.0381136,-0.114197,-0.0760829,0.0879363,0.0219216,-0.109858
0.82,-0.0441492,-0.110827,-0.0666781,0.0894757,0.013007,-0.102483
0.825,-0.0482736,-0.107052,-0.0587783,0.0896772,0.00606489,-0.0957421
0.83,-0.0481942,-0.103371,-0.0551771,0.0875063,0.0040316,-0.0915379
0.835,-0.044137,-0.0995449,-0.0554079,0.0829547,0.00650721,-0.089462
0.84,-0.038017,-0.0960383,-0.0580213,0.0773969,0.0115495,-0.0889463
0.845,-0.0331634,-0.0926244,-0.059461,0.0726235,0.0151829,-0.0878065
0.85,-0.0327767,-0.0882306,-0.0554539,0.0698636,0.0130927,-0.0829562
0.855,-0.0369159,-0.0833246,-0.0464087,0.0694208,0.00548068,-0.0749015
0.86,-0.0395852,-0.0789739,-0.0393887,0.0684501,-0.000113463,-0.0683366
0.865,-0.0357201,-0.0757256,-0.0400055,0.0643431,0.00247419,-0.0668173
0.87,-0.027228,-0.0736381,-0.0464101,0.0582351,0.0110748,-0.0693099
0.875,-0.0187273,-0.0723206,-0.0535933,0.0525665,0.0201299,-0.0726964
0.88,-0.0102687,-0.0715592,-0.0612905,0.0472433,0.0294575,-0.0767008
0.885,-0.000533515,-0.0705309,-0.0699974,0.041029,0.040105,-0.081134
0.89,0.00579695,-0.0679276,-0.0737245,0.0358711,0.0459117,-0.0817829
0.895,0.00468599,-0.0623348,-0.0670208,0.0332835,0.0413999,-0.0746834
0.9,8.33E-05,-0.0544458,-0.0545291,0.0313862,0.0315304,-0.0629166
0.905,-0.00108262,-0.0472209,-0.0461383,0.0278881,0.0260129,-0.053901
0.91,0.00426341,-0.0427221,-0.0469855,0.0222041,0.0295886,-0.0517927
0.915,0.0152286,-0.0406244,-0.055853,0.0146622,0.041039,-0.0557012
0.92,0.0280366,-0.0404412,-0.0684778,0.00716177,0.0557226,-0.0628843
0.925,0.0388485,-0.0408007,-0.0796492,0.00112708,0.0684147,-0.0695417
0.93,0.0458014,-0.0399042,-0.0857056,-0.0034048,0.0759256,-0.0725208
0.935,0.0486746,-0.0379433,-0.0866179,-0.00619569,0.0781111,-0.0719154
0.94,0.0493856,-0.0360491,-0.0854347,-0.00769986,0.0778385,-0.0701387
0.945,0.0510907,-0.0344084,-0.0854991,-0.00963156,0.0788601,-0.0692286
0.95,0.0541748,-0.0331619,-0.0873367,-0.0121318,0.0817017,-0.0695698
0.955,0.0562333,-0.0325148,-0.0887481,-0.0136939,0.083705,-0.0700111
0.96,0.0572601,-0.0322819,-0.089542,-0.0144212,0.0847562,-0.070335
0.965,0.0592126,-0.0327694,-0.091982,-0.0152669,0.0872922,-0.0720252
0.97,0.0616405,-0.0336243,-0.0952648,-0.0161751,0.0905892,-0.0744141
0.975,0.0593379,-0.0321464,-0.0914843,-0.015699,0.0870772,-0.0713782
0.98,0.0463268,-0.0281496,-0.0744763,-0.0104946,0.0697457,-0.0592511
0.985,0.0235715,-0.0260468,-0.0496183,0.00142915,0.0422561,-0.0436852
0.99,-0.00176246,-0.0289033,-0.0271408,0.0177049,0.0146522,-0.0323571
0.995,-0.0250094,-0.0347152,-0.00970576,0.034482,-0.00883558,-0.0256464
1,-0.0431167,-0.0402233,0.00289339,0.0481163,-0.0265639,-0.0215524
1.005,-0.0540344,-0.0458157,0.00821868,0.0576485,-0.0359418,-0.0217067
1.01,-0.058583,-0.0533855,0.00519754,0.064645,-0.0368237,-0.0278213
1.015,-0.0584352,-0.0628425,-0.0044073,0.0700197,-0.031193,-0.0388267
1.02,-0.0574117,-0.0728622,-0.0154505,0.0752136,-0.0242263,-0.0509874
1.025,-0.0598207,-0.0810741,-0.0212535,0.0813456,-0.0222668,-0.0590788
1.03,-0.0657788,-0.0862798,-0.020501,0.0877911,-0.0261412,-0.0616499
1.035,-0.0718848,-0.090539,-0.0186542,0.0937754,-0.0307327,-0.0630427
1.04,-0.074325,-0.0948743,-0.0205493,0.0976872,-0.0310474,-0.0666398
1.045,-0.0735524,-0.0984115,-0.0248591,0.0992834,-0.0281131,-0.0711703
1.05,-0.0753231,-0.100984,-0.0256606,0.101791,-0.0286727,-0.0731181
1.055,-0.0826846,-0.102357,-0.0196721,0.106834,-0.0363803,-0.0704533
1.06,-0.0918541,-0.101981,-0.0101268,0.111911,-0.0471853,-0.0647253
1.065,-0.0983908,-0.0989811,-0.000590347,0.113953,-0.0564651,-0.0574876
1.07,-0.100463,-0.0939997,0.00646364,0.112273,-0.0617343,-0.050539
1.075,-0.0972407,-0.0901284,0.00711235,0.108178,-0.0602482,-0.0479293
1.08,-0.0894535,-0.0887617,0.000691779,0.102893,-0.0520454,-0.0508472
1.085,-0.0800442,-0.0872308,-0.00718658,0.0965762,-0.0420643,-0.0545119
1.09,-0.0730075,-0.0829872,-0.00997974,0.0900635,-0.0363891,-0.0536745
1.095,-0.0717243,-0.0763139,-0.00458963,0.0854699,-0.0387602,-0.0467097
1.1,-0.0764454,-0.0696169,0.00682849,0.0843291,-0.0480782,-0.0362509
1.105,-0.0836812,-0.0654251,0.0182562,0.0860865,-0.0588536,-0.027233
1.11,-0.0881852,-0.0643159,0.0238693,0.0880465,-0.0646947,-0.0233518
1.115,-0.0850105,-0.0647149,0.0202955,0.086444,-0.0607984,-0.0256455
1.12,-0.0741759,-0.0655757,0.00860021,0.0806856,-0.0477908,-0.0328948
1.125,-0.0625536,-0.0671523,-0.00459871,0.0748857,-0.0334603,-0.0414254
1.13,-0.0552405,-0.0688884,-0.0136479,0.0716658,-0.0240135,-0.0476524
1.135,-0.0512419,-0.0703516,-0.0191097,0.070202,-0.0185515,-0.0516505
1.14,-0.0504791,-0.0722588,-0.0217798,0.0708627,-0.0165695,-0.0542932
1.145,-0.0550471,-0.0747098,-0.0196627,0.0749151,-0.0204292,-0.0544859
1.15,-0.0652414,-0.0762644,-0.011023,0.0816984,-0.031303,-0.0503954
1.155,-0.0766822,-0.0761263,0.000555925,0.088224,-0.0445934,-0.0436306
1.16,-0.083556,-0.0760636,0.00749245,0.0921564,-0.0525668,-0.0395895
1.165,-0.084946,-0.0776136,0.00733235,0.0938538,-0.0532769,-0.0405769
1.17,-0.0850895,-0.0796961,0.00539342,0.0951389,-0.0522403,-0.0428986
1.175,-0.0872317,-0.0810065,0.00622517,0.0971323,-0.0539573,-0.043175
1.18,-0.0909466,-0.0821981,0.00874842,0.0999651,-0.0575589,-0.0424062
1.185,-0.0943887,-0.0850202,0.00936853,0.103582,-0.0599043,-0.0436775
1.19,-0.0960873,-0.0886184,0.00746896,0.10664,-0.0597882,-0.0468516
1.195,-0.094666,-0.091136,0.00353003,0.107273,-0.0566935,-0.0505793
1.2,-0.088126,-0.0924186,-0.00429264,0.104237,-0.0484012,-0.0558362
1.205,-0.0758602,-0.0937587,-0.0178985,0.0979295,-0.0334642,-0.0644653
1.21,-0.0633235,-0.0964979,-0.0331744,0.0922729,-0.0174066,-0.0748663
1.215,-0.0577968,-0.10126,-0.0434629,0.0918313,-0.00827566,-0.0835556
1.22,-0.0617445,-0.107005,-0.0452601,0.0974273,-0.00951728,-0.08791
1.225,-0.072538,-0.111323,-0.0387854,0.106152,-0.0194871,-0.0866654
1.23,-0.084383,-0.112676,-0.0282932,0.113772,-0.0323835,-0.0813887
1.235,-0.0914188,-0.112061,-0.0206425,0.117479,-0.0408627,-0.0766165
1.24,-0.0916933,-0.112354,-0.0206608,0.117807,-0.0410106,-0.0767962
1.245,-0.0876979,-0.115732,-0.0280342,0.11745,-0.0344468,-0.0830035
1.25,-0.0823887,-0.120702,-0.038313,0.117254,-0.0254471,-0.0918072
1.255,-0.0782353,-0.124764,-0.0465289,0.117202,-0.0183057,-0.0988961
1.26,-0.0772111,-0.126929,-0.0497176,0.11786,-0.0158734,-0.101987
1.265,-0.0793919,-0.12705,-0.0476576,0.119189,-0.0183218,-0.100867
1.27,-0.0826703,-0.126788,-0.0441175,0.120931,-0.0222585,-0.0986721
1.275,-0.0849635,-0.127701,-0.042737,0.122782,-0.0243795,-0.0984021
1.28,-0.0834445,-0.129129,-0.0456844,0.122729,-0.0218008,-0.100928
1.285,-0.0776906,-0.129846,-0.0521557,0.119821,-0.0147426,-0.105079
1.29,-0.0736985,-0.128677,-0.0549781,0.116841,-0.0108083,-0.106033
1.295,-0.0766473,-0.125605,-0.0489578,0.11677,-0.0159865,-0.100784
1.3,-0.0841075,-0.121391,-0.0372838,0.118645,-0.0270337,-0.0916111
1.305,-0.0899945,-0.116614,-0.0266196,0.119286,-0.0365895,-0.082696
1.31,-0.0912453,-0.109675,-0.0184297,0.116001,-0.0420401,-0.0739612
1.315,-0.0889014,-0.099435,-0.0105336,0.108736,-0.0452457,-0.0634904
1.32,-0.0837981,-0.0878972,-0.00409911,0.0991283,-0.0460142,-0.0531141
1.325,-0.0761833,-0.0767051,-0.000521868,0.0882701,-0.0436831,-0.044587
1.33,-0.0686575,-0.0662474,0.00241012,0.0778873,-0.0410309,-0.0368565
1.335,-0.0648089,-0.0551114,0.00969755,0.069236,-0.0430163,-0.0262197
1.34,-0.0664792,-0.041042,0.0254372,0.0620774,-0.053068,-0.00900944
1.345,-0.0736122,-0.0236288,0.0499834,0.0561421,-0.0713579,0.0152158
1.35,-0.0834225,-0.00622091,0.0772016,0.0517556,-0.0927363,0.0409807
1.355,-0.0923805,0.00706756,0.099448,0.0492554,-0.110752,0.0614968
1.36,-0.0971566,0.0165146,0.113671,0.0465587,-0.121721,0.0751627
1.365,-0.0955053,0.0231321,0.118637,0.0417847,-0.123635,0.0818506
1.37,-0.0872741,0.0244249,0.111699,0.036286,-0.114877,0.0785911
1.375,-0.0754603,0.0158809,0.0913413,0.0343982,-0.0963029,0.0619048
1.38,-0.066781,-0.00468515,0.0620959,0.041261,-0.0744071,0.0331461
1.385,-0.0656973,-0.0350385,0.0306588,0.0581598,-0.0556312,-0.00252862
1.39,-0.0698952,-0.0694606,0.000434555,0.0804571,-0.0406049,-0.0398522
1.395,-0.0746754,-0.101515,-0.0268395,0.101723,-0.027618,-0.0741054
1.4,-0.0776449,-0.126445,-0.0487997,0.117831,-0.0166538,-0.101177
1.405,-0.0800946,-0.144332,-0.0642379,0.129573,-0.00915487,-0.120418
1.41,-0.0840313,-0.15714,-0.0731084,0.13924,-0.00630632,-0.132934
1.415,-0.0878517,-0.165947,-0.0780956,0.146531,-0.00563271,-0.140898
1.42,-0.0868867,-0.172187,-0.0853007,0.149576,-0.000915663,-0.148661
1.425,-0.0798516,-0.176695,-0.0968437,0.148117,0.00981042,-0.157928
1.43,-0.0740797,-0.180116,-0.106036,0.14676,0.01845,-0.16521
1.435,-0.0752982,-0.183947,-0.108649,0.149675,0.019255,-0.16893
1.44,-0.0777626,-0.18724,-0.109478,0.152999,0.0183106,-0.17131
1.445,-0.0695393,-0.181787,-0.112248,0.145103,0.0246577,-0.169761
1.45,-0.0433685,-0.15221,-0.108842,0.112917,0.037801,-0.150718
1.455,-0.00558785,-0.080681,-0.0750931,0.0498073,0.0401289,-0.0899362
1.46,0.025545,0.0495414,0.0239964,-0.0433511,0.000894062,0.042457
1.465,0.0321681,0.247678,0.21551,-0.161569,-0.105853,0.267422
1.47,0.00501353,0.498427,0.493413,-0.290661,-0.281978,0.572639
1.475,-0.0548184,0.744159,0.798977,-0.397991,-0.492939,0.89093
1.48,-0.134066,0.899324,1.03339,-0.441822,-0.674031,1.11585
1.485,-0.213535,0.901121,1.11466,-0.396978,-0.766831,1.16381
1.49,-0.276063,0.757166,1.03323,-0.277765,-0.75592,1.03368
1.495,-0.310918,0.535467,0.846384,-0.129643,-0.668168,0.797812
1.5,-0.313355,0.31431,0.627665,-0.000551378,-0.543298,0.54385
1.505,-0.282908,0.141021,0.423929,0.0819188,-0.408093,0.326174
1.51,-0.229841,0.0260541,0.255895,0.117656,-0.280439,0.162783
1.515,-0.173905,-0.0420268,0.131878,0.124668,-0.176544,0.0518757
1.52,-0.126797,-0.0807759,0.0460208,0.119842,-0.0997762,-0.0200659
1.525,-0.0922241,-0.105327,-0.0131029,0.114056,-0.0456806,-0.0683755
1.53,-0.0737399,-0.12381,-0.0500701,0.114055,-0.0136658,-0.10039
1.535,-0.0704956,-0.138833,-0.0683373,0.120856,-0.00124609,-0.11961
1.54,-0.0749946,-0.15022,-0.0752249,0.130027,0.000132979,-0.13016
1.545,-0.0786565,-0.156691,-0.078035,0.135878,-0.00035883,-0.135519
1.55,-0.0778771,-0.159217,-0.0813401,0.136886,0.00199934,-0.138886
1.555,-0.0731314,-0.160713,-0.0875815,0.13501,0.00834273,-0.143353
1.56,-0.0658711,-0.163365,-0.0974942,0.13235,0.0182576,-0.150607
1.565,-0.0576295,-0.166898,-0.109269,0.129631,0.0298139,-0.159445
1.57,-0.0497414,-0.168719,-0.118977,0.126128,0.0399734,-0.166101
1.575,-0.0428383,-0.167334,-0.124496,0.121343,0.0471449,-0.168488
1.58,-0.0369421,-0.163887,-0.126945,0.115949,0.0519632,-0.167912
1.585,-0.0330489,-0.159435,-0.126386,0.111131,0.0538883,-0.165019
1.59,-0.0312419,-0.153699,-0.122457,0.106776,0.0526632,-0.159439
1.595,-0.0286225,-0.147593,-0.118971,0.101738,0.0521624,-0.153901
1.6,-0.0230789,-0.142582,-0.119503,0.0956446,0.0556707,-0.151315
1.605,-0.016556,-0.138865,-0.122309,0.0897326,0.0610567,-0.150789
1.61,-0.0123554,-0.134853,-0.122498,0.084991,0.0635908,-0.148582
1.615,-0.0135258,-0.129645,-0.116119,0.0826597,0.0592324,-0.141892
1.62,-0.0186493,-0.124433,-0.105783,0.0826083,0.0503068,-0.132915
1.625,-0.0231488,-0.120293,-0.097144,0.082816,0.0427212,-0.125537
1.63,-0.0255374,-0.116765,-0.0912277,0.0821583,0.0379263,-0.120085
1.635,-0.026646,-0.112674,-0.086028,0.0804364,0.0342842,-0.114721
1.64,-0.025969,-0.108996,-0.0830268,0.0779219,0.0329424,-0.110864
1.645,-0.022311,-0.106761,-0.0844501,0.0745198,0.035876,-0.110396
1.65,-0.0146314,-0.104449,-0.0898176,0.068751,0.0434088,-0.11216
1.655,-0.00461327,-0.100645,-0.096032,0.060771,0.0527806,-0.113552
1.66,0.00405726,-0.0951141,-0.0991714,0.0525717,0.059599,-0.112171
1.665,0.010582,-0.0871226,-0.0977047,0.0441907,0.0625193,-0.10671
1.67,0.0184397,-0.077765,-0.0962047,0.0342514,0.06619,-0.100441
1.675,0.0301564,-0.0702306,-0.100387,0.0231368,0.0753693,-0.098506
1.68,0.0441036,-0.0660008,-0.110104,0.0126423,0.089032,-0.101674
1.685,0.0560216,-0.0645975,-0.120619,0.00495127,0.101984,-0.106935
1.69,0.0610681,-0.0656496,-0.126718,0.00264515,0.108418,-0.111063
1.695,0.0590598,-0.067231,-0.126291,0.0047176,0.107012,-0.11173
1.7,0.0537445,-0.0683171,-0.122062,0.00841352,0.101502,-0.109915
1.705,0.0481828,-0.0689019,-0.117085,0.0119622,0.0954173,-0.107379
1.71,0.0444236,-0.069107,-0.113531,0.0142509,0.0911949,-0.105446
1.715,0.0437931,-0.0692268,-0.11302,0.0146841,0.0905359,-0.10522
1.72,0.0455434,-0.0689107,-0.114454,0.0134911,0.0923746,-0.105866
1.725,0.0460955,-0.067998,-0.114093,0.0126454,0.0924851,-0.10513
1.73,0.0416849,-0.0667612,-0.108446,0.0144778,0.0866781,-0.101156
1.735,0.0304694,-0.0657501,-0.0962195,0.0203693,0.0731438,-0.0935131
1.74,0.0155529,-0.0652119,-0.0807647,0.0286706,0.055609,-0.0842796
1.745,0.00291922,-0.0652734,-0.0681926,0.0360002,0.0410564,-0.0770566
1.75,-0.00729463,-0.0677525,-0.0604579,0.0433285,0.0306938,-0.0740223
1.755,-0.0178033,-0.074018,-0.0562147,0.0530131,0.0221768,-0.0751899
1.76,-0.0276492,-0.0829674,-0.0553182,0.0638645,0.0159747,-0.0798392
1.765,-0.0333976,-0.0918424,-0.0584448,0.0723073,0.014461,-0.0867683
1.77,-0.0356553,-0.100281,-0.0646252,0.0784826,0.0167258,-0.0952083
1.775,-0.0422182,-0.108076,-0.0658579,0.0867724,0.0136484,-0.100421
1.78,-0.0576755,-0.113638,-0.0559624,0.0989078,-0.000989048,-0.0979188
1.785,-0.0754697,-0.116213,-0.0407435,0.110668,-0.0200492,-0.090619
1.79,-0.0856932,-0.117314,-0.0316205,0.117206,-0.0312189,-0.0859871
1.795,-0.0858438,-0.119341,-0.0334972,0.118463,-0.0302223,-0.0882411
1.8,-0.08155,-0.123495,-0.041945,0.118383,-0.0228659,-0.0955168
1.805,-0.0781801,-0.129004,-0.0508242,0.119618,-0.0157939,-0.103824
1.81,-0.0768234,-0.133702,-0.0568786,0.121547,-0.0115151,-0.110032
1.815,-0.0753979,-0.135869,-0.0604707,0.121975,-0.00861821,-0.113357
1.82,-0.0719947,-0.135833,-0.0638381,0.119989,-0.00470919,-0.11528
1.825,-0.0696473,-0.135518,-0.0658702,0.118452,-0.00218074,-0.116271
1.83,-0.0726862,-0.135498,-0.0628119,0.120195,-0.00570091,-0.114494
1.835,-0.0807931,-0.134559,-0.0537658,0.124333,-0.0156042,-0.108729
1.84,-0.0891297,-0.131112,-0.0419822,0.127157,-0.0272207,-0.0999358
1.845,-0.0913018,-0.124772,-0.0334698,0.12475,-0.0333893,-0.0913606
1.85,-0.0827763,-0.116869,-0.0340924,0.115265,-0.0281076,-0.0871574
1.855,-0.0675229,-0.109217,-0.0416937,0.102041,-0.0149125,-0.087128
1.86,-0.0571401,-0.103333,-0.0461925,0.0926489,-0.0063206,-0.0863283
1.865,-0.057614,-0.0991194,-0.0415055,0.09049,-0.00930023,-0.0811898
1.87,-0.0642721,-0.0945621,-0.03029,0.0917029,-0.0196195,-0.0720834
1.875,-0.0682769,-0.0898311,-0.0215542,0.0912836,-0.0269753,-0.0643083
1.88,-0.0663179,-0.0858231,-0.0195051,0.0878386,-0.0270273,-0.0608112
1.885,-0.0647729,-0.0825548,-0.0177819,0.0850597,-0.0271303,-0.0579294
1.89,-0.0691926,-0.0803751,-0.0111825,0.0863529,-0.0334921,-0.0528608
1.895,-0.0772415,-0.0798466,-0.00260502,0.0906948,-0.0430914,-0.0476034
1.9,-0.0830952,-0.0811852,0.00191009,0.0948473,-0.0490778,-0.0457695
1.905,-0.0837732,-0.0842801,-0.0005069,0.0970255,-0.0480738,-0.0489518
1.91,-0.0797534,-0.0894664,-0.00971299,0.097699,-0.0404378,-0.0572612
1.915,-0.0742182,-0.096115,-0.0218969,0.0983419,-0.0302077,-0.0681342
1.92,-0.0710481,-0.102473,-0.0314248,0.100182,-0.0228765,-0.0773059
1.925,-0.0714628,-0.106341,-0.0348778,0.102655,-0.0211223,-0.0815325
1.93,-0.0743466,-0.108358,-0.0340111,0.105484,-0.0232877,-0.0821966
1.935,-0.0761979,-0.110745,-0.0345473,0.107932,-0.024047,-0.0838846
1.94,-0.0750198,-0.112663,-0.0376432,0.108359,-0.0215794,-0.0867793
1.945,-0.0727335,-0.112469,-0.0397355,0.106927,-0.0190514,-0.0878753
1.95,-0.0729529,-0.110167,-0.0372138,0.105724,-0.020634,-0.0850901
1.955,-0.0778485,-0.106397,-0.0285485,0.106374,-0.0284633,-0.0779108
1.96,-0.0851845,-0.102843,-0.0176584,0.108558,-0.0389862,-0.0695715
1.965,-0.0881662,-0.101074,-0.0129075,0.109258,-0.0434506,-0.0658071
1.97,-0.0813672,-0.101561,-0.0201942,0.105614,-0.0353182,-0.0702956
1.975,-0.0682478,-0.104523,-0.0362748,0.099749,-0.0184596,-0.0812894
1.98,-0.0574772,-0.109945,-0.0524675,0.0966611,-0.00289234,-0.0937687
1.985,-0.0565738,-0.116102,-0.0595278,0.0996942,0.00170549,-0.1014
1.99,-0.0672168,-0.121623,-0.0544063,0.109027,-0.00739613,-0.101631
1.995,-0.0835839,-0.125768,-0.0421843,0.120869,-0.0239021,-0.0969673
2,-0.0977819,-0.127949,-0.0301674,0.130326,-0.0390373,-0.0912886
2.005,-0.105212,-0.128425,-0.0232135,0.13489,-0.0473416,-0.0875485
2.01,-0.104393,-0.12738,-0.0229867,0.133814,-0.0470001,-0.0868143
2.015,-0.0981244,-0.125972,-0.0278479,0.129382,-0.0405741,-0.0888081
2.02,-0.0913553,-0.126205,-0.0348494,0.125608,-0.0326237,-0.0929846
2.025,-0.086629,-0.128779,-0.0421504,0.124366,-0.0256797,-0.0986863
2.03,-0.0840299,-0.132186,-0.0481561,0.124832,-0.0207117,-0.10412
2.035,-0.0837199,-0.133557,-0.0498368,0.125445,-0.0195624,-0.105882
2.04,-0.0865061,-0.130777,-0.0442708,0.125448,-0.0243846,-0.101064
2.045,-0.0907641,-0.123469,-0.0327051,0.123688,-0.0335204,-0.0901672
2.05,-0.0937068,-0.112224,-0.0185169,0.118894,-0.0434109,-0.0754831
2.055,-0.0946603,-0.0986553,-0.00399499,0.111611,-0.0523456,-0.0592651
2.06,-0.0922887,-0.0850219,0.00726678,0.10237,-0.0574784,-0.0448919
2.065,-0.0834631,-0.0730989,0.0103642,0.0903911,-0.0541712,-0.0362199
2.07,-0.0725959,-0.0625056,0.0100903,0.0780008,-0.0477389,-0.030262
2.075,-0.0691566,-0.0492539,0.0199027,0.0683643,-0.0514183,-0.0169459
2.08,-0.075693,-0.0316185,0.0440745,0.0619563,-0.0691478,0.00719149
2.085,-0.0876304,-0.0123807,0.0752498,0.0577414,-0.0940389,0.0362975
2.09,-0.098619,0.00565426,0.104273,0.0536732,-0.11714,0.0634666
2.095,-0.104149,0.0211619,0.125311,0.0479129,-0.132479,0.0845662
2.1,-0.101889,0.0330853,0.134974,0.0397236,-0.136753,0.097029
2.105,-0.092456,0.0399526,0.132409,0.0303128,-0.129826,0.0995128
2.11,-0.0814961,0.0397086,0.121205,0.024126,-0.117029,0.0929033
2.115,-0.075247,0.030604,0.105851,0.0257746,-0.104557,0.0787824
2.12,-0.0755385,0.0128333,0.0883719,0.0362028,-0.0946337,0.0584308
2.125,-0.0800009,-0.0122575,0.0677434,0.0532654,-0.0853002,0.0320348
2.13,-0.0844909,-0.0426238,0.0418672,0.0733897,-0.0729529,-0.00043681
2.135,-0.0872794,-0.0732415,0.0140378,0.0926768,-0.0584955,-0.0341813
2.14,-0.0891354,-0.0988972,-0.00976171,0.108561,-0.0458264,-0.0627342
2.145,-0.0902094,-0.117991,-0.027782,0.120205,-0.0360425,-0.0841622
2.15,-0.0874146,-0.131616,-0.0442017,0.126458,-0.0249489,-0.101509
2.155,-0.0817099,-0.141566,-0.0598558,0.128908,-0.0126175,-0.116291
2.16,-0.0806878,-0.147779,-0.067091,0.131905,-0.00785012,-0.124055
2.165,-0.0880793,-0.149929,-0.0618496,0.137414,-0.0151437,-0.12227
2.17,-0.0994901,-0.149425,-0.0499349,0.143711,-0.0286107,-0.1151
2.175,-0.107756,-0.148708,-0.0409523,0.14807,-0.0385691,-0.1095
2.18,-0.107653,-0.148423,-0.0407706,0.147846,-0.0386144,-0.109231
2.185,-0.0952764,-0.143599,-0.0483231,0.137915,-0.0271085,-0.110806
2.19,-0.0672004,-0.120653,-0.0534522,0.108457,-0.00793751,-0.100519
2.195,-0.0294915,-0.0591342,-0.0296427,0.0511681,8.73E-05,-0.0512553
2.2,-0.000537442,0.0616182,0.0621556,-0.035265,-0.0361958,0.0714608
2.205,0.00349068,0.25459,0.251099,-0.149003,-0.142957,0.29196
2.21,-0.0227863,0.506955,0.529742,-0.279535,-0.319002,0.598537
2.215,-0.0769865,0.761993,0.83898,-0.395489,-0.528833,0.924322
2.22,-0.149956,0.931711,1.08167,-0.451346,-0.711078,1.16242
2.225,-0.228982,0.949447,1.17843,-0.415961,-0.812569,1.22853
2.23,-0.296255,0.817897,1.11415,-0.30117,-0.814299,1.11547
2.235,-0.334107,0.600777,0.934884,-0.153962,-0.732652,0.886614
2.24,-0.336343,0.376143,0.712486,-0.0229788,-0.605542,0.62852
2.245,-0.309152,0.194978,0.50413,0.0659181,-0.469548,0.40363
2.25,-0.264776,0.0714768,0.336252,0.111601,-0.347004,0.235402
2.255,-0.215296,-0.0030225,0.212274,0.126046,-0.246857,0.120811
2.26,-0.171142,-0.0446475,0.126494,0.124586,-0.17184,0.0472544
2.265,-0.137905,-0.0676858,0.0702188,0.118698,-0.12016,0.00146241
2.27,-0.115709,-0.080555,0.0351538,0.113313,-0.0871005,-0.0262124
2.275,-0.101762,-0.087575,0.0141872,0.109314,-0.0669434,-0.0423704
2.28,-0.093418,-0.0921076,0.00131036,0.107113,-0.0546914,-0.0524218
2.285,-0.0899293,-0.0967704,-0.00684102,0.107791,-0.047971,-0.05982
2.29,-0.0887913,-0.102663,-0.0138714,0.110536,-0.0432551,-0.0672809
2.295,-0.0853128,-0.108778,-0.0234648,0.112058,-0.0357079,-0.0763502
2.3,-0.0797498,-0.113232,-0.0334824,0.111418,-0.0267125,-0.0847057
2.305,-0.0758758,-0.114527,-0.0386516,0.109929,-0.0214914,-0.0884379
2.31,-0.0743057,-0.111793,-0.0374874,0.107444,-0.0212571,-0.0861871
2.315,-0.0719108,-0.106521,-0.0346105,0.103018,-0.0215354,-0.0814824
2.32,-0.0669193,-0.1012,-0.0342809,0.0970638,-0.0188438,-0.07822
2.325,-0.0633673,-0.0963614,-0.0329941,0.0922193,-0.0175359,-0.0746834
2.33,-0.0650726,-0.0907935,-0.0257209,0.0899893,-0.0227197,-0.0672696
2.335,-0.0700908,-0.0836643,-0.0135735,0.0887705,-0.0326303,-0.0561403
2.34,-0.0742415,-0.077475,-0.00323353,0.0875935,-0.0409964,-0.0465971
2.345,-0.0736393,-0.0750967,-0.00145741,0.0858727,-0.0416742,-0.0441985
2.35,-0.0677812,-0.0749334,-0.00715224,0.0823963,-0.0350041,-0.0473922
2.355,-0.0613096,-0.0737749,-0.0124653,0.077991,-0.0282003,-0.0497907
2.36,-0.0579372,-0.0692948,-0.0113576,0.0734574,-0.0268927,-0.0465647
2.365,-0.0579146,-0.0612261,-0.00331144,0.0687859,-0.0315251,-0.0372607
2.37,-0.0573811,-0.0518737,0.00550741,0.0630782,-0.0363087,-0.0267696
2.375,-0.0514646,-0.0435401,0.00792444,0.0548509,-0.0342882,-0.0205627
2.38,-0.0404206,-0.0369939,0.00342673,0.0446952,-0.0253153,-0.01938
2.385,-0.0261619,-0.0313752,-0.00521335,0.0332191,-0.0120946,-0.0211244
2.39,-0.0123027,-0.0255043,-0.0132017,0.0218279,0.000519032,-0.0223469
2.395,-0.00580254,-0.0194106,-0.0136081,0.0145568,0.00450652,-0.0190633
2.4,-0.0067858,-0.0128954,-0.00610959,0.0113629,-0.000390407,-0.0109725
2.405,-0.0111126,-0.00695162,0.00416095,0.0104294,-0.00881816,-0.00161119
2.41,-0.0148798,-0.00234075,0.012539,0.00994227,-0.0158302,0.00588797
2.415,-0.0146681,0.00284247,0.0175106,0.00682755,-0.0185784,0.0117509
2.42,-0.0104338,0.00872479,0.0191586,0.000986676,-0.0170851,0.0160985
2.425,-0.00386107,0.0129385,0.0167996,-0.00524087,-0.0119284,0.0171693
2.43,0.00359051,0.0146477,0.0110571,-0.0105298,-0.00431086,0.0148407
2.435,0.0115665,0.0142668,0.00270026,-0.0149149,0.00511893,0.00979592
2.44,0.0200882,0.0120741,-0.00801414,-0.0185689,0.0162249,0.00234401
2.445,0.0275578,0.00837261,-0.0191852,-0.0207444,0.0269871,-0.00624266
2.45,0.0322844,0.00484017,-0.0274443,-0.0214339,0.0344844,-0.0130505
2.455,0.0330813,0.00299404,-0.0300873,-0.0208281,0.0364704,-0.0156423
2.46,0.0288146,0.00263997,-0.0261746,-0.0181603,0.031748,-0.0135877
2.465,0.0210717,0.00402515,-0.0170466,-0.0144897,0.0220076,-0.00751793
2.47,0.0129711,0.00759315,-0.00537797,-0.0118728,0.0105938,0.00127894
2.475,0.00642741,0.012196,0.00576854,-0.0107522,0.000380398,0.0103718
2.48,0.00201528,0.0160198,0.0140045,-0.0104126,-0.00692199,0.0173345
2.485,-0.00215295,0.017614,0.019767,-0.00892644,-0.0126555,0.0215819
2.49,-0.0105246,0.0161677,0.0266923,-0.00325806,-0.0214872,0.0247452
2.495,-0.026033,0.0122457,0.0382787,0.0079601,-0.0371303,0.0291702
2.5,-0.0452043,0.00732782,0.0525321,0.021868,-0.0564281,0.0345601
2.505,-0.062562,0.00192498,0.064487,0.0350088,-0.0733517,0.0383429
2.51,-0.0746544,-0.00480084,0.0698536,0.0458735,-0.0834317,0.0375582
2.515,-0.0817193,-0.0127412,0.0689781,0.0545368,-0.0870052,0.0324684
2.52,-0.0891129,-0.020643,0.0684699,0.0633676,-0.0909804,0.0276129
2.525,-0.09942,-0.0272736,0.0721463,0.0731466,-0.0990538,0.0259072
2.53,-0.109144,-0.0326101,0.0765338,0.0818417,-0.107201,0.0253593
2.535,-0.114453,-0.0370348,0.0774185,0.0874616,-0.110777,0.0233155
2.54,-0.113137,-0.0415154,0.0716213,0.0892884,-0.10667,0.0173816
2.545,-0.104995,-0.0461259,0.0588694,0.0872498,-0.0946073,0.00735742
2.55,-0.095571,-0.0499749,0.0455961,0.0840309,-0.0815028,-0.00252814
2.555,-0.0925407,-0.0512409,0.0412998,0.0830123,-0.0772728,-0.00573951
2.56,-0.0981,-0.0487629,0.0493372,0.0847913,-0.0851229,0.000331588
2.565,-0.106856,-0.0429085,0.0639476,0.0864666,-0.0986135,0.012147
2.57,-0.111969,-0.035456,0.076513,0.0851158,-0.10882,0.0237043
2.575,-0.112314,-0.0287511,0.0835626,0.0814438,-0.113089,0.0316454
2.58,-0.110608,-0.0245328,0.086075,0.0780234,-0.113555,0.0355314
2.585,-0.108327,-0.0224036,0.0859234,0.0754774,-0.11215,0.0366731
2.59,-0.105104,-0.0216015,0.0835024,0.0731534,-0.108892,0.0357385
2.595,-0.0997108,-0.0210243,0.0786865,0.0697064,-0.102998,0.0332913
2.6,-0.0927958,-0.0189349,0.0738608,0.0645077,-0.0962192,0.0317115
2.605,-0.088781,-0.0153078,0.0734732,0.0600957,-0.0936775,0.0335818
2.61,-0.0921436,-0.0111767,0.080967,0.059652,-0.0999454,0.0402934
2.615,-0.100204,-0.00677268,0.0934309,0.0617627,-0.111795,0.0500321
2.62,-0.105813,-0.00404564,0.101767,0.0634268,-0.119846,0.0564196
2.625,-0.106772,-0.00587079,0.100901,0.0650341,-0.1199,0.0548656
2.63,-0.10507,-0.010645,0.094425,0.0668081,-0.115178,0.0483704
2.635,-0.101869,-0.0150749,0.0867946,0.0675178,-0.108925,0.0414074
2.64,-0.0988482,-0.0183882,0.08046,0.0676864,-0.103524,0.0358372
2.645,-0.0975814,-0.0214198,0.0761617,0.0687053,-0.100311,0.0316053
2.65,-0.0961815,-0.0249564,0.0712251,0.0699389,-0.0966522,0.0267132
2.655,-0.0931728,-0.0286014,0.0645713,0.0703064,-0.0910736,0.0207672
2.66,-0.0899754,-0.0323088,0.0576665,0.0706008,-0.0852411,0.0146403
2.665,-0.0896834,-0.0366037,0.0530797,0.0729118,-0.0824243,0.00951243
2.67,-0.0925269,-0.0407251,0.0518019,0.0769331,-0.0833282,0.0063952
2.675,-0.0963874,-0.0437369,0.0526505,0.0809008,-0.0860471,0.0051463
2.68,-0.101162,-0.0463055,0.0548565,0.0851403,-0.0900773,0.00493694
2.685,-0.106585,-0.0492931,0.0572918,0.0899962,-0.0946142,0.00461804
2.69,-0.109881,-0.0528785,0.0570024,0.0939692,-0.0963501,0.00238092
2.695,-0.109087,-0.0572649,0.0518224,0.0960435,-0.0929012,-0.00314227
2.7,-0.10596,-0.061453,0.0445069,0.0966558,-0.086872,-0.0097838
2.705,-0.104243,-0.0641329,0.0401102,0.0972119,-0.0833424,-0.0138695
2.71,-0.103942,-0.0645172,0.039425,0.0972601,-0.0827731,-0.014487
2.715,-0.100888,-0.0636813,0.037207,0.0950143,-0.0797293,-0.015285
2.72,-0.0964926,-0.0632673,0.0332253,0.0922373,-0.0748926,-0.0173447
2.725,-0.0965801,-0.0644692,0.0321109,0.0929818,-0.0742997,-0.0186821
2.73,-0.102495,-0.0677763,0.0347186,0.0983061,-0.0792202,-0.0190859
2.735,-0.11092,-0.0717055,0.0392146,0.105439,-0.0866802,-0.0187587
2.74,-0.117981,-0.0742967,0.0436838,0.111011,-0.0933369,-0.0176744
2.745,-0.120805,-0.0751316,0.0456734,0.113124,-0.0961163,-0.0170077
2.75,-0.118166,-0.0744594,0.0437065,0.111212,-0.093457,-0.0177552
2.755,-0.11266,-0.0734117,0.0392483,0.107429,-0.0877042,-0.0197243
2.76,-0.110232,-0.0726407,0.0375913,0.105582,-0.0853458,-0.0202358
2.765,-0.113077,-0.0713933,0.0416834,0.106504,-0.0893507,-0.017153
2.77,-0.119201,-0.0694939,0.0497073,0.108943,-0.0975193,-0.0114238
2.775,-0.125982,-0.0671482,0.0588343,0.111504,-0.106704,-0.00480004
2.78,-0.131178,-0.0647726,0.066405,0.113132,-0.114074,0.000942436
2.785,-0.133377,-0.063564,0.0698131,0.113704,-0.117312,0.00360789
2.79,-0.130996,-0.0638801,0.0671156,0.112512,-0.11438,0.00186803
2.795,-0.122368,-0.0660789,0.0562893,0.1088,-0.103148,-0.00565203
2.8,-0.109365,-0.0696444,0.0397206,0.103351,-0.0860746,-0.0172765
2.805,-0.0997913,-0.0723783,0.027413,0.0994021,-0.0734414,-0.0259607
2.81,-0.0987101,-0.0726629,0.0260472,0.0989422,-0.0720287,-0.0269135
2.815,-0.103835,-0.0714441,0.0323911,0.101198,-0.0786502,-0.0225473
2.82,-0.110225,-0.0701259,0.0400989,0.104126,-0.0867895,-0.0173361
2.825,-0.115215,-0.0692248,0.0459904,0.106486,-0.093072,-0.0134144
2.83,-0.119511,-0.0694085,0.0501024,0.109073,-0.0979262,-0.0111464
2.835,-0.123497,-0.0695857,0.0539117,0.111477,-0.102427,-0.00904936
2.84,-0.124734,-0.0687848,0.0559491,0.111728,-0.104317,-0.0074107
2.845,-0.119618,-0.0669236,0.0526944,0.1077,-0.0994845,-0.00821521
2.85,-0.110459,-0.063094,0.0473651,0.100201,-0.0911198,-0.00908111
2.855,-0.104238,-0.0550524,0.0491852,0.0919661,-0.0885787,-0.00338741
2.86,-0.104723,-0.0428882,0.0618348,0.0852234,-0.0961622,0.0109388
2.865,-0.110393,-0.0284523,0.0819405,0.0801622,-0.111044,0.0308815
2.87,-0.116948,-0.0131083,0.10384,0.075088,-0.127472,0.0523838
2.875,-0.121615,0.00184224,0.123457,0.0691507,-0.141492,0.0723416
2.88,-0.12417,0.0164737,0.140644,0.0621783,-0.15289,0.0907117
2.885,-0.123799,0.0311046,0.154904,0.0535172,-0.160909,0.107392
2.89,-0.119306,0.045347,0.164653,0.0427004,-0.163944,0.121244
2.895,-0.111605,0.0582525,0.169858,0.0308032,-0.162503,0.131699
2.9,-0.104176,0.0684447,0.172621,0.0206296,-0.159809,0.139179
2.905,-0.100213,0.0754794,0.175693,0.0142801,-0.159294,0.145014
2.91,-0.0978003,0.0800843,0.177885,0.0102283,-0.159167,0.148938
2.915,-0.0934746,0.0819015,0.175376,0.00668173,-0.155221,0.148539
2.92,-0.0898775,0.0778366,0.167714,0.00695183,-0.148721,0.141769
2.925,-0.0917815,0.0638016,0.155583,0.0161542,-0.142816,0.126662
2.93,-0.0986599,0.0396728,0.138333,0.0340562,-0.136828,0.102771
2.935,-0.105403,0.00915635,0.114559,0.0555681,-0.126995,0.0714273
2.94,-0.107601,-0.0232311,0.0843702,0.0755361,-0.110835,0.0352987
2.945,-0.107244,-0.0519077,0.055336,0.091886,-0.0938654,0.00197934
2.95,-0.108886,-0.0738292,0.0350572,0.105491,-0.0831059,-0.022385
2.955,-0.114178,-0.0901505,0.0240277,0.117969,-0.0797932,-0.038176
2.96,-0.122023,-0.102377,0.0196463,0.129557,-0.0817929,-0.0477646
2.965,-0.129063,-0.111188,0.0178749,0.138709,-0.0848348,-0.0538746
2.97,-0.13219,-0.116998,0.0151911,0.143869,-0.0850902,-0.0587784
2.975,-0.130873,-0.120307,0.0105665,0.145019,-0.0816602,-0.0633585
2.98,-0.126293,-0.122441,0.00385208,0.143606,-0.0751391,-0.0684671
2.985,-0.1187,-0.123754,-0.00505373,0.139981,-0.0656138,-0.0743671
2.99,-0.106533,-0.119032,-0.0124988,0.13023,-0.0542909,-0.0759394
2.995,-0.0865094,-0.0959626,-0.00945316,0.10535,-0.0444884,-0.0608618
3,-0.0593999,-0.0369671,0.0224328,0.0556375,-0.0472461,-0.00839142
3.005,-0.0338954,0.0748307,0.108726,-0.023634,-0.0823425,0.105976
3.01,-0.0224818,0.24822,0.270702,-0.13033,-0.169269,0.299599
3.015,-0.0371117,0.476939,0.514051,-0.253935,-0.318214,0.572149
3.02,-0.0848444,0.722468,0.807312,-0.368132,-0.515087,0.883218
3.025,-0.160251,0.910564,1.07082,-0.433193,-0.710757,1.14395
3.03,-0.244334,0.969507,1.21384,-0.418679,-0.841877,1.26056
3.035,-0.313585,0.880513,1.1941,-0.327316,-0.870461,1.19778
3.04,-0.351259,0.691364,1.04262,-0.196359,-0.804758,1.00112
3.045,-0.352241,0.47686,0.829101,-0.0719489,-0.682047,0.753996
3.05,-0.323444,0.290662,0.614106,0.0189266,-0.541295,0.522368
3.055,-0.279852,0.1528,0.432652,0.0733538,-0.411364,0.338011
3.06,-0.234675,0.0607997,0.295474,0.100387,-0.306082,0.205695
3.065,-0.193735,0.00214609,0.195881,0.110614,-0.224945,0.114331
3.07,-0.159762,-0.0363224,0.12344,0.113209,-0.163507,0.0502973
3.075,-0.13485,-0.0629391,0.0719106,0.114193,-0.119373,0.00517971
3.08,-0.117739,-0.0815656,0.0361736,0.115069,-0.0888615,-0.0262071
3.085,-0.104308,-0.0946567,0.00965116,0.114872,-0.0657942,-0.049078
3.09,-0.0922848,-0.103848,-0.0115631,0.113237,-0.0466047,-0.0666325
3.095,-0.0841715,-0.110307,-0.0261359,0.112282,-0.0335069,-0.0787755
3.1,-0.0816346,-0.114713,-0.0330783,0.113361,-0.028034,-0.0853272
3.105,-0.0820652,-0.117117,-0.0350517,0.114998,-0.0271432,-0.0878545
3.11,-0.0830897,-0.119144,-0.0360541,0.11676,-0.027156,-0.0896036
3.115,-0.0835037,-0.121893,-0.0383892,0.118586,-0.0260469,-0.0925388
3.12,-0.0795473,-0.123395,-0.043848,0.117169,-0.020611,-0.0965578
3.125,-0.0701898,-0.12215,-0.0519607,0.111048,-0.0105245,-0.100523
3.13,-0.0608681,-0.119044,-0.0581755,0.103872,-0.00155459,-0.102317
3.135,-0.0549854,-0.115364,-0.0603782,0.098351,0.00311351,-0.101464
3.14,-0.0507014,-0.111576,-0.0608742,0.0936906,0.00587326,-0.0995639
3.145,-0.0487802,-0.107701,-0.0589208,0.0903445,0.0058547,-0.0961992
3.15,-0.0507473,-0.103396,-0.0526488,0.0889947,0.00109781,-0.0900925
3.155,-0.0562234,-0.0982295,-0.0420062,0.0891734,-0.00820829,-0.0809651
3.16,-0.0632975,-0.0926789,-0.0293814,0.0900529,-0.0195814,-0.0704715
3.165,-0.0689599,-0.0867906,-0.0178307,0.0899225,-0.0295194,-0.0604031
3.17,-0.0697617,-0.0803314,-0.0105697,0.0866562,-0.0341745,-0.0524818
3.175,-0.0631915,-0.074104,-0.0109124,0.0792676,-0.0301833,-0.0490842
3.18,-0.0521141,-0.0682297,-0.0161157,0.0694805,-0.0207837,-0.0486968
3.185,-0.0425419,-0.0624819,-0.01994,0.0606355,-0.0130492,-0.0475863
3.19,-0.0362123,-0.0555984,-0.0193862,0.0530069,-0.00971454,-0.0432924
3.195,-0.0320535,-0.0473393,-0.0152857,0.0458374,-0.00968087,-0.0361566
3.2,-0.0298165,-0.0387974,-0.00898091,0.0396142,-0.0120294,-0.0275848
3.205,-0.0275416,-0.0303272,-0.00278552,0.0334106,-0.0142929,-0.0191176
3.21,-0.0210726,-0.0223313,-0.00125867,0.0250592,-0.0114396,-0.0136197
3.215,-0.00867031,-0.016639,-0.0079687,0.0146123,-0.000405078,-0.0142073
3.22,0.00502569,-0.0142007,-0.0192264,0.00529721,0.014002,-0.0192992
3.225,0.0155425,-0.0141029,-0.0296454,-0.000831194,0.0260893,-0.0252581
3.23,0.0236766,-0.0147251,-0.0384018,-0.00516815,0.035841,-0.0306728
3.235,0.0316321,-0.0150894,-0.0467215,-0.00955095,0.0452375,-0.0356865
3.24,0.0399589,-0.0145638,-0.0545228,-0.0146618,0.054549,-0.0398871
3.245,0.045832,-0.0128607,-0.0586927,-0.019036,0.0603473,-0.0413113
3.25,0.0447656,-0.0109185,-0.0556841,-0.0195416,0.0579946,-0.038453
3.255,0.036114,-0.00994581,-0.0460598,-0.0151082,0.0474431,-0.0323349
3.26,0.0243492,-0.0089872,-0.0333364,-0.00886926,0.0333048,-0.0244355
3.265,0.0150645,-0.00701417,-0.0220787,-0.00464784,0.0214446,-0.0167967
3.27,0.0114882,-0.00476305,-0.0162512,-0.00388275,0.0160153,-0.0121326
3.275,0.0106955,-0.00256959,-0.0132651,-0.0046915,0.0138337,-0.00914217
3.28,0.00664914,-6.32E-05,-0.00671234,-0.00380239,0.00771425,-0.00391186
3.285,-0.00187842,0.00162627,0.00350469,0.000145582,-0.00310794,0.00296236
3.29,-0.0123318,0.000522409,0.0128543,0.00681818,-0.0145412,0.00772302
3.295,-0.022895,-0.00305067,0.0198444,0.0149798,-0.0246756,0.00969584
3.3,-0.0333086,-0.00822819,0.0250804,0.0239813,-0.0337109,0.00972963
3.305,-0.0441598,-0.015233,0.0289268,0.0342904,-0.0421965,0.00790611
3.31,-0.0550386,-0.0241854,0.0308532,0.04574,-0.0495896,0.00384962
3.315,-0.0638334,-0.0339102,0.0299232,0.0564322,-0.0541303,-0.0023019
3.32,-0.0693535,-0.0430123,0.0263412,0.0648744,-0.0552493,-0.00962506
3.325,-0.0731782,-0.0517782,0.0214,0.0721436,-0.0546047,-0.0175389
3.33,-0.0788485,-0.0605253,0.0183231,0.0804674,-0.056102,-0.0243654
3.335,-0.0853388,-0.0679847,0.0173542,0.0885213,-0.0592898,-0.0292315
3.34,-0.0871846,-0.0737103,0.0134743,0.0928927,-0.0581154,-0.0347773
3.345,-0.0851699,-0.0783073,0.00686259,0.0943835,-0.0531349,-0.0412486
3.35,-0.0851588,-0.0815762,0.00358262,0.0962644,-0.0512348,-0.0450296
3.355,-0.0899331,-0.0844214,0.00551163,0.100664,-0.055105,-0.0455586
3.36,-0.0982231,-0.0865387,0.0116843,0.106672,-0.063455,-0.0432172
3.365,-0.106386,-0.0866378,0.019748,0.111442,-0.0728234,-0.0386188
3.37,-0.110887,-0.0847132,0.0261738,0.11293,-0.079132,-0.0337977
3.375,-0.11171,-0.0815507,0.0301593,0.111579,-0.0819082,-0.0296708
3.38,-0.111698,-0.0776854,0.0340127,0.109341,-0.0841261,-0.0252144
3.385,-0.112413,-0.0740356,0.0383771,0.107646,-0.0870585,-0.0205875
3.39,-0.112854,-0.0706541,0.0422003,0.105949,-0.0895209,-0.0164278
3.395,-0.111553,-0.0670492,0.044504,0.103116,-0.0900996,-0.0130165
3.4,-0.10867,-0.0636943,0.044976,0.0995147,-0.0887077,-0.010807
3.405,-0.103914,-0.0604597,0.0434539,0.0949009,-0.0850826,-0.00981828
3.41,-0.0968159,-0.0562053,0.0406107,0.0883468,-0.0793433,-0.00900355
3.415,-0.0890974,-0.0507962,0.0383013,0.0807676,-0.0735536,-0.00721393
3.42,-0.0834809,-0.0450841,0.0383968,0.074227,-0.0703661,-0.0038609
3.425,-0.0828276,-0.0404227,0.0424049,0.0711586,-0.072303,0.0011444
3.43,-0.0881514,-0.0388349,0.0493164,0.0733155,-0.079367,0.00605149
3.435,-0.0969454,-0.040973,0.0559724,0.0796272,-0.0882871,0.00865992
3.44,-0.105983,-0.0448147,0.0611686,0.0870632,-0.0965051,0.00944191
3.445,-0.111682,-0.0479299,0.0637523,0.092152,-0.101287,0.00913507
3.45,-0.111237,-0.0494408,0.0617963,0.0927674,-0.0999008,0.00713343
3.455,-0.106662,-0.0501693,0.0564923,0.0905463,-0.0941969,0.00365059
3.46,-0.1015,-0.0510659,0.0504341,0.088084,-0.0877192,-0.000364771
3.465,-0.0974981,-0.0528461,0.044652,0.0868012,-0.0820704,-0.00473084
3.47,-0.0962179,-0.0555026,0.0407153,0.0875959,-0.0790584,-0.00853748
3.475,-0.0979706,-0.058748,0.0392226,0.0904815,-0.0792085,-0.011273
3.48,-0.09977,-0.0622402,0.0375298,0.0935366,-0.07927,-0.0142666
3.485,-0.099725,-0.065702,0.0340229,0.0955093,-0.0772194,-0.0182899
3.49,-0.0989819,-0.0686754,0.0303065,0.0967969,-0.0746447,-0.0221523
3.495,-0.0991486,-0.0709039,0.0282447,0.0981798,-0.0735505,-0.0246293
3.5,-0.09936,-0.0721407,0.0272192,0.0990159,-0.0730805,-0.0259354
3.505,-0.0979997,-0.0722851,0.0257146,0.098314,-0.0714265,-0.0268875
3.51,-0.0960168,-0.0723372,0.0236796,0.0971992,-0.0691068,-0.0280924
3.515,-0.0971259,-0.0730235,0.0241024,0.0982357,-0.0699911,-0.0282446
3.52,-0.10277,-0.0744865,0.0282832,0.102339,-0.0756633,-0.0266755
3.525,-0.109258,-0.0766249,0.032633,0.107319,-0.0819207,-0.0253987
3.53,-0.113837,-0.0797082,0.0341288,0.111743,-0.085428,-0.0263152
3.535,-0.116241,-0.0833064,0.0329347,0.115209,-0.0861266,-0.0290821
3.54,-0.117171,-0.087071,0.0301002,0.117919,-0.0850271,-0.0328921
3.545,-0.115967,-0.0909199,0.0250469,0.119446,-0.0814142,-0.0380318
3.55,-0.112105,-0.0947528,0.0173524,0.119429,-0.0747423,-0.0446872
3.555,-0.108351,-0.0990105,0.00934076,0.11972,-0.0679495,-0.0517708
3.56,-0.108002,-0.102172,0.00582998,0.121344,-0.0657208,-0.055623
3.565,-0.110619,-0.102073,0.00854513,0.122798,-0.0687992,-0.0539986
3.57,-0.114273,-0.0989846,0.0152886,0.123124,-0.0748025,-0.0483219
3.575,-0.11792,-0.0956874,0.0222327,0.123326,-0.0809173,-0.0424091
3.58,-0.120719,-0.0943475,0.0263716,0.124169,-0.0849229,-0.0392459
3.585,-0.121513,-0.0945645,0.0269484,0.124752,-0.0857141,-0.0390382
3.59,-0.118657,-0.0950704,0.0235862,0.123395,-0.0821239,-0.0412714
3.595,-0.112782,-0.0961873,0.0165943,0.120648,-0.0746952,-0.045953
3.6,-0.108176,-0.0982127,0.00996361,0.119159,-0.0682081,-0.0509506
3.605,-0.108339,-0.100433,0.0079055,0.120534,-0.0671136,-0.0534208
3.61,-0.112337,-0.102137,0.0102003,0.123827,-0.0707471,-0.0530797
3.615,-0.116044,-0.102822,0.0132219,0.126362,-0.0746315,-0.0517304
3.62,-0.117223,-0.102882,0.0143401,0.127078,-0.0759577,-0.0511199
3.625,-0.115427,-0.103821,0.0116066,0.126583,-0.073343,-0.0532398
3.63,-0.109542,-0.106668,0.00287482,0.124829,-0.064904,-0.0599247
3.635,-0.101847,-0.110062,-0.0082157,0.122346,-0.0540579,-0.0682878
3.64,-0.0965691,-0.111644,-0.0150747,0.120212,-0.0470508,-0.073161
3.645,-0.0962276,-0.10945,-0.0132226,0.118748,-0.0479229,-0.0708251
3.65,-0.0998393,-0.101994,-0.00215504,0.116529,-0.056398,-0.0601306
3.655,-0.104274,-0.089732,0.014542,0.112009,-0.0685984,-0.0434109
3.66,-0.109414,-0.0752109,0.0342028,0.106593,-0.0829169,-0.023676
3.665,-0.116051,-0.0605247,0.0555265,0.101946,-0.0990604,-0.00288568
3.67,-0.122419,-0.0469275,0.0754914,0.0977721,-0.114263,0.0164914
3.675,-0.125067,-0.0345942,0.0904729,0.0921804,-0.124442,0.0322616
3.68,-0.12298,-0.0216565,0.101324,0.0835059,-0.129502,0.0459957
3.685,-0.117453,-0.00654656,0.110906,0.071591,-0.131843,0.0602521
3.69,-0.109403,0.0100734,0.119476,0.0573477,-0.132143,0.0747954
3.695,-0.100718,0.0268147,0.127532,0.0426679,-0.13178,0.0891123
3.7,-0.0950119,0.0410127,0.136025,0.0311764,-0.133389,0.102212
3.705,-0.0944507,0.0508248,0.145276,0.0251874,-0.138406,0.113219
3.71,-0.0975798,0.0562636,0.153843,0.0238539,-0.145159,0.121305
3.715,-0.0995958,0.0566199,0.156216,0.0248122,-0.147693,0.122881
3.72,-0.0972909,0.0484798,0.145771,0.0281811,-0.140332,0.112151
3.725,-0.0921649,0.0292718,0.121437,0.0363113,-0.123323,0.0870116
3.73,-0.0872935,0.00117103,0.0884645,0.0497228,-0.101474,0.0517511
3.735,-0.085572,-0.0307665,0.0548056,0.067168,-0.081047,0.013879
3.74,-0.0869073,-0.0621119,0.0247954,0.0860362,-0.0644916,-0.0215447
3.745,-0.0891757,-0.0902509,-0.00107523,0.103592,-0.0508648,-0.0527272
3.75,-0.0921815,-0.114142,-0.0219609,0.119121,-0.0405419,-0.0785792
3.755,-0.095856,-0.132404,-0.0365483,0.131786,-0.0342413,-0.0975448
3.76,-0.100882,-0.143766,-0.0428837,0.141248,-0.0334856,-0.107762
3.765,-0.107435,-0.14999,-0.0425552,0.148624,-0.0374584,-0.111166
3.77,-0.113545,-0.154336,-0.0407916,0.154661,-0.042004,-0.112657
3.775,-0.117445,-0.157918,-0.040473,0.158981,-0.04444,-0.114541
3.78,-0.117246,-0.160506,-0.0432609,0.16036,-0.042715,-0.117645
3.785,-0.109053,-0.161317,-0.0522645,0.156098,-0.0327867,-0.123311
3.79,-0.0918552,-0.153499,-0.0616441,0.141655,-0.0174424,-0.124213
3.795,-0.067678,-0.122954,-0.0552763,0.110062,-0.00716012,-0.102901
3.8,-0.0425886,-0.0518358,-0.00924724,0.0545159,-0.0192496,-0.0352663
3.805,-0.0266916,0.0774184,0.10411,-0.0292871,-0.0755183,0.104805
3.81,-0.028572,0.27346,0.302032,-0.141386,-0.190874,0.332261
3.815,-0.0538121,0.52067,0.574482,-0.269541,-0.362746,0.632286
3.82,-0.105097,0.761583,0.866679,-0.379022,-0.561055,0.940077
3.825,-0.176149,0.912586,1.08873,-0.425182,-0.730281,1.15546
3.83,-0.251423,0.916168,1.16759,-0.383791,-0.819267,1.20306
3.835,-0.312525,0.781156,1.09368,-0.270564,-0.811873,1.08244
3.84,-0.344514,0.573319,0.917833,-0.132101,-0.728816,0.860917
3.845,-0.340489,0.366068,0.706557,-0.0147682,-0.604512,0.61928
3.85,-0.30788,0.200962,0.508842,0.0617291,-0.471535,0.409806
3.855,-0.262094,0.0857445,0.347838,0.101815,-0.352145,0.250329
3.86,-0.214498,0.0108539,0.225352,0.117574,-0.253947,0.136373
3.865,-0.172809,-0.036588,0.136221,0.120895,-0.178418,0.0575231
3.87,-0.141025,-0.0673051,0.0737201,0.120279,-0.123983,0.00370369
3.875,-0.117235,-0.0896392,0.0275953,0.119439,-0.0836175,-0.0358211
3.88,-0.0979242,-0.108967,-0.0110426,0.119449,-0.0501611,-0.0692874
3.885,-0.0822028,-0.125767,-0.0435646,0.120072,-0.0223078,-0.0977639
3.89,-0.0722082,-0.137654,-0.065446,0.121164,-0.00390415,-0.11726
3.895,-0.0687104,-0.143142,-0.0744313,0.122313,0.00330297,-0.125616
3.9,-0.0698844,-0.143022,-0.0731371,0.122921,0.00187798,-0.124799
3.905,-0.0717802,-0.140237,-0.0684572,0.122408,-0.00191853,-0.12049
3.91,-0.0698995,-0.138217,-0.0683171,0.120156,-0.000913589,-0.119242
3.915,-0.0641704,-0.138003,-0.0738322,0.116725,0.00557825,-0.122303
3.92,-0.0585863,-0.138551,-0.0799648,0.113817,0.0123429,-0.12616
3.925,-0.0550347,-0.137677,-0.0826423,0.111262,0.0159393,-0.127201
3.93,-0.053234,-0.13426,-0.0810255,0.108249,0.0160454,-0.124295
3.935,-0.0518828,-0.128824,-0.0769417,0.104331,0.0144678,-0.118799
3.94,-0.0507256,-0.123996,-0.0732704,0.100875,0.0130162,-0.113892
3.945,-0.0512908,-0.121217,-0.0699257,0.0995971,0.0107589,-0.110356
3.95,-0.0539689,-0.119959,-0.0659906,0.100418,0.00694071,-0.107358
3.955,-0.055973,-0.119245,-0.0632722,0.101162,0.00421418,-0.105376
3.96,-0.0551966,-0.117915,-0.0627189,0.0999463,0.00434297,-0.104289
3.965,-0.0515154,-0.114393,-0.0628776,0.0957873,0.00655997,-0.102347
3.97,-0.0462665,-0.108591,-0.0623246,0.089407,0.00927112,-0.0986781
3.975,-0.0415505,-0.102408,-0.0608572,0.0831143,0.0111467,-0.094261
3.98,-0.0378708,-0.0969578,-0.059087,0.0778433,0.0122492,-0.0900925
3.985,-0.0342671,-0.0920225,-0.0577554,0.0729133,0.0135609,-0.0864742
3.99,-0.0299293,-0.0879902,-0.058061,0.0680808,0.0162418,-0.0843226
3.995,-0.0237373,-0.084947,-0.0612096,0.0627489,0.0216346,-0.0843835
4,-0.0146165,-0.0812896,-0.0666732,0.0553714,0.0300549,-0.0854263
4.005,-0.00238933,-0.0758183,-0.073429,0.0451532,0.0410147,-0.0861679
4.01,0.0133229,-0.0694146,-0.0827375,0.0323845,0.0554605,-0.087845
4.015,0.0316548,-0.0640823,-0.095737,0.018722,0.0735497,-0.0922717
4.02,0.0472103,-0.0610988,-0.108309,0.00801851,0.0897892,-0.0978077
4.025,0.0527172,-0.0588314,-0.111549,0.00353,0.0948389,-0.0983689
4.03,0.0454656,-0.0544795,-0.0999451,0.0052042,0.0839528,-0.089157
4.035,0.0317828,-0.0478972,-0.07968,0.00930369,0.064353,-0.0736567
4.04,0.0207057,-0.04194,-0.0626458,0.0122596,0.048123,-0.0603826
4.045,0.0200382,-0.0385693,-0.0586076,0.0106989,0.0454061,-0.0561051
4.05,0.0304784,-0.037292,-0.0677704,0.0039338,0.0567239,-0.0606577
4.055,0.0425757,-0.0377945,-0.0803702,-0.00276041,0.0709828,-0.0682224
4.06,0.0462761,-0.0394247,-0.0857008,-0.00395567,0.0761969,-0.0722412
4.065,0.0391922,-0.0399989,-0.0791912,0.000465742,0.0683487,-0.0688144
4.07,0.0260132,-0.0383658,-0.064379,0.00713182,0.0521879,-0.0593198
4.075,0.0135324,-0.0351548,-0.0486873,0.0124837,0.0359225,-0.0484062
4.08,0.00677352,-0.031836,-0.0386095,0.0144698,0.0262019,-0.0406717
4.085,0.00469348,-0.0303809,-0.0350743,0.0148306,0.02296,-0.0377906
4.09,0.00234731,-0.0318498,-0.0341972,0.0170333,0.021099,-0.0381322
4.095,-0.00384586,-0.036413,-0.0325672,0.0232435,0.0165822,-0.0398257
4.1,-0.0138273,-0.0441937,-0.0303664,0.0334984,0.00954884,-0.0430473
4.105,-0.0230375,-0.0539885,-0.030951,0.044471,0.00456884,-0.0490398
4.11,-0.0305117,-0.0648145,-0.0343027,0.0550366,0.00218873,-0.0572253
4.115,-0.0394146,-0.0767576,-0.037343,0.067072,-0.00119609,-0.0658759
4.12,-0.0512152,-0.0887666,-0.0375514,0.0808185,-0.00788876,-0.0729297
4.125,-0.0656607,-0.0986658,-0.033005,0.0948739,-0.0188538,-0.0760201
4.13,-0.0799811,-0.10419,-0.0242089,0.106331,-0.0322001,-0.0741311
4.135,-0.0893815,-0.105947,-0.0165657,0.112773,-0.0420402,-0.0707328
4.14,-0.0921901,-0.106975,-0.014785,0.114988,-0.0446898,-0.0702982
4.145,-0.0904044,-0.109045,-0.0186403,0.115152,-0.041433,-0.0737189
4.15,-0.0877679,-0.111812,-0.024044,0.115227,-0.036791,-0.0784364
4.155,-0.0876687,-0.113379,-0.0257108,0.116075,-0.0357714,-0.0803038
4.16,-0.0908831,-0.11222,-0.0213365,0.117261,-0.0401527,-0.0771086
4.165,-0.0957931,-0.109921,-0.0141278,0.118769,-0.0471494,-0.0716195
4.17,-0.0989871,-0.10826,-0.00927266,0.119654,-0.0517966,-0.0678573
4.175,-0.0978092,-0.106812,-0.00900314,0.118138,-0.0512722,-0.0668661
4.18,-0.0936388,-0.105019,-0.0113799,0.114695,-0.0474922,-0.0672027
4.185,-0.088983,-0.103405,-0.0144224,0.111075,-0.0430475,-0.0680279
4.19,-0.0847575,-0.101853,-0.0170954,0.107739,-0.0390647,-0.0686747
4.195,-0.0798737,-0.0991527,-0.0192791,0.103361,-0.0349843,-0.0683766
4.2,-0.071546,-0.0963812,-0.0248352,0.0969528,-0.0269685,-0.0699843
4.205,-0.0594792,-0.0966488,-0.0371696,0.0901405,-0.0128805,-0.07726
4.21,-0.0519239,-0.098796,-0.046872,0.0870181,-0.00291674,-0.0841014
4.215,-0.0571337,-0.0976898,-0.0405562,0.0893874,-0.00957104,-0.0798163
4.22,-0.073766,-0.0918491,-0.0180831,0.0956178,-0.0321485,-0.0634693
4.225,-0.0922428,-0.0839577,0.00828516,0.101729,-0.0580398,-0.0436895
4.23,-0.102855,-0.0775986,0.0252563,0.104185,-0.073965,-0.0302198
4.235,-0.103989,-0.0750623,0.0289262,0.103375,-0.0767383,-0.0266367
4.24,-0.100073,-0.076416,0.0236568,0.101896,-0.0714353,-0.0304605
4.245,-0.0948928,-0.080178,0.0147148,0.101077,-0.0632819,-0.0377952
4.25,-0.0911704,-0.0848422,0.0063282,0.101621,-0.0562908,-0.0453301
4.255,-0.0910704,-0.088071,0.00299943,0.103427,-0.0543112,-0.0491161
4.26,-0.0939785,-0.089221,0.00475749,0.10577,-0.0570052,-0.048765
4.265,-0.0971851,-0.089158,0.00802714,0.107585,-0.0607443,-0.0468409
4.27,-0.0982076,-0.0890745,0.00913312,0.108127,-0.0619732,-0.0461541
4.275,-0.0955409,-0.0899154,0.0056256,0.107073,-0.0584085,-0.0486647
4.28,-0.0906165,-0.0917379,-0.00112138,0.105282,-0.05167,-0.0536123
4.285,-0.0850151,-0.0943548,-0.00933971,0.103559,-0.0436912,-0.059868
4.29,-0.0780382,-0.0978617,-0.0198235,0.101556,-0.0336102,-0.0679456
4.295,-0.0699744,-0.102089,-0.0321145,0.0993408,-0.0218584,-0.0774824
4.3,-0.0641938,-0.105753,-0.0415588,0.0981186,-0.0130683,-0.0850502
4.305,-0.0657938,-0.108114,-0.0423201,0.100406,-0.0135525,-0.0868531
4.31,-0.0769212,-0.108433,-0.0315121,0.107014,-0.0262169,-0.0807974
4.315,-0.0934763,-0.106489,-0.0130124,0.11545,-0.0464559,-0.0689939
4.32,-0.107026,-0.10448,0.00254641,0.122113,-0.0632617,-0.0588512
4.325,-0.111654,-0.10503,0.00662398,0.125103,-0.0682878,-0.0568148
4.33,-0.107514,-0.108957,-0.00144256,0.12498,-0.0612405,-0.0637391
4.335,-0.100267,-0.114704,-0.0144367,0.124113,-0.0495541,-0.0745592
4.34,-0.0950826,-0.118431,-0.0233482,0.123272,-0.0414159,-0.0818561
4.345,-0.0948348,-0.118366,-0.0235313,0.123092,-0.0411671,-0.0819244
4.35,-0.0997051,-0.115855,-0.01615,0.124454,-0.0482405,-0.0762132
4.355,-0.106241,-0.11379,-0.00754883,0.127035,-0.05698,-0.0700549
4.36,-0.109784,-0.11423,-0.00444624,0.129335,-0.0608168,-0.068518
4.365,-0.106846,-0.11718,-0.0103335,0.129341,-0.0557216,-0.0736197
4.37,-0.0953039,-0.121399,-0.026095,0.125113,-0.0399578,-0.0851556
4.375,-0.0808351,-0.126104,-0.0452692,0.119476,-0.020534,-0.0989424
4.38,-0.0734047,-0.130121,-0.0567168,0.117506,-0.00963474,-0.107871
4.385,-0.0766208,-0.132492,-0.0558712,0.120731,-0.0119797,-0.108752
4.39,-0.0875701,-0.133143,-0.0455725,0.127428,-0.0242473,-0.103181
4.395,-0.101467,-0.131772,-0.0303051,0.134661,-0.0410855,-0.0935754
4.4,-0.113021,-0.128746,-0.0157252,0.139585,-0.0561739,-0.0834107
4.405,-0.119021,-0.125756,-0.00673505,0.141322,-0.0648282,-0.0764937
4.41,-0.117943,-0.125043,-0.0070995,0.140288,-0.0639958,-0.0762924
4.415,-0.109277,-0.126364,-0.0170869,0.136047,-0.053226,-0.0828214
4.42,-0.0966645,-0.128131,-0.0314666,0.129786,-0.037642,-0.0921437
4.425,-0.0860498,-0.129801,-0.0437512,0.124622,-0.0244211,-0.1002
4.43,-0.0803167,-0.130364,-0.050047,0.121636,-0.0174762,-0.10416
4.435,-0.0784857,-0.128088,-0.0496024,0.119265,-0.0166758,-0.10259
4.44,-0.0790861,-0.122264,-0.0431774,0.116249,-0.0207319,-0.0955173
4.445,-0.0830633,-0.113043,-0.0299802,0.113222,-0.0306475,-0.0825747
4.45,-0.0897966,-0.100589,-0.0107926,0.109919,-0.045613,-0.0643063
4.455,-0.0935858,-0.0863762,0.0072097,0.103901,-0.0581943,-0.0457068
4.46,-0.0917398,-0.0727557,0.0189841,0.0949714,-0.0639264,-0.0310451
4.465,-0.0896931,-0.0600299,0.0296631,0.0864426,-0.0689103,-0.0175322
4.47,-0.0916135,-0.0474694,0.0441441,0.0802995,-0.0783796,-0.00191988
4.475,-0.0950454,-0.0341867,0.0608587,0.0746122,-0.0900112,0.0153991
4.48,-0.0959144,-0.0197283,0.0761861,0.0667664,-0.0993623,0.0325959
4.485,-0.0939519,-0.00437773,0.0895742,0.0567706,-0.105959,0.0491882
4.49,-0.0905437,0.0108967,0.10144,0.0459842,-0.110842,0.0648578
4.495,-0.0877386,0.0247195,0.112458,0.0363841,-0.115584,0.0791995
4.5,-0.0864337,0.0331649,0.119599,0.0307547,-0.118953,0.0881981
4.505,-0.0852321,0.0300738,0.115306,0.0318456,-0.115781,0.083935
4.51,-0.083381,0.0133287,0.0967097,0.0404447,-0.103975,0.0635306
4.515,-0.0814681,-0.0135249,0.0679431,0.0548442,-0.0862625,0.0314184
4.52,-0.0797442,-0.045272,0.0344722,0.0721781,-0.0659428,-0.00623524
4.525,-0.07882,-0.076869,0.00195098,0.0898871,-0.0466331,-0.0432539
4.53,-0.0791326,-0.105202,-0.0260689,0.106425,-0.0306363,-0.075789
4.535,-0.0804532,-0.128532,-0.0480784,0.120657,-0.0186916,-0.101966
4.54,-0.0827527,-0.145713,-0.0629605,0.131905,-0.011427,-0.120478
4.545,-0.0856165,-0.156357,-0.07074,0.139703,-0.00858896,-0.131114
4.55,-0.0890016,-0.161326,-0.0723241,0.144526,-0.00962874,-0.134898
4.555,-0.0926208,-0.162785,-0.070164,0.147458,-0.0129655,-0.134493
4.56,-0.0952864,-0.163222,-0.0679354,0.14925,-0.0157911,-0.133459
4.565,-0.0955081,-0.165037,-0.0695288,0.150426,-0.0149992,-0.135427
4.57,-0.0925812,-0.167684,-0.0751032,0.150264,-0.0100909,-0.140173
4.575,-0.0851287,-0.1643,-0.0791716,0.144008,-0.00343934,-0.140569
4.58,-0.0686515,-0.143059,-0.0744079,0.122231,0.00332346,-0.125555
4.585,-0.0406473,-0.0892486,-0.0486014,0.0749954,0.00459229,-0.0795877
4.59,-0.00960057,0.0151367,0.0247373,-0.00319631,-0.019825,0.0230213
4.595,0.00815433,0.185182,0.177028,-0.111623,-0.0974989,0.209122
4.6,-0.000238676,0.417411,0.417649,-0.240854,-0.241268,0.482122
4.605,-0.0402766,0.670144,0.710421,-0.363654,-0.433415,0.797069
4.61,-0.107736,0.864304,0.97204,-0.436804,-0.623409,1.06021
4.615,-0.189391,0.925233,1.11462,-0.424838,-0.752874,1.17771
4.62,-0.26549,0.834694,1.10018,-0.32863,-0.788472,1.1171
4.625,-0.316461,0.641789,0.95825,-0.187828,-0.735954,0.923782
4.63,-0.333467,0.424065,0.757531,-0.0523069,-0.629888,0.682195
4.635,-0.318762,0.239069,0.557831,0.0460108,-0.506101,0.46009
4.64,-0.281933,0.107296,0.389229,0.100827,-0.387495,0.286669
4.645,-0.233447,0.0238501,0.257297,0.121011,-0.283331,0.16232
4.65,-0.181177,-0.0265004,0.154677,0.119903,-0.193905,0.0740026
4.655,-0.134578,-0.0582337,0.0763445,0.11132,-0.121776,0.0104562
4.66,-0.101675,-0.0805453,0.0211296,0.105205,-0.0709012,-0.0343036
4.665,-0.0819938,-0.0971169,-0.0151231,0.10341,-0.0386078,-0.0648017
4.67,-0.0695303,-0.109875,-0.0403445,0.10358,-0.0168504,-0.0867291
4.675,-0.0615246,-0.119745,-0.0582205,0.104656,-0.00190766,-0.102748
4.68,-0.0591257,-0.126465,-0.0673389,0.107151,0.00474193,-0.111892
4.685,-0.0613466,-0.128986,-0.0676391,0.109888,0.003633,-0.113521
4.69,-0.0639359,-0.128181,-0.0642454,0.110919,0.00017868,-0.111098
4.695,-0.0618848,-0.12669,-0.0648048,0.108873,0.00168588,-0.110559
4.7,-0.0546354,-0.125794,-0.0711587,0.104171,0.00953969,-0.113711
4.705,-0.0470827,-0.125247,-0.0781645,0.0994947,0.0179451,-0.11744
4.71,-0.0421638,-0.123806,-0.0816417,0.0958224,0.0227926,-0.118615
4.715,-0.0399233,-0.119783,-0.0798602,0.0922067,0.0230576,-0.115264
4.72,-0.0399035,-0.112744,-0.0728404,0.088131,0.0190161,-0.107147
4.725,-0.0407682,-0.104126,-0.0633578,0.0836546,0.0130421,-0.0966967
4.73,-0.0423381,-0.0954091,-0.053071,0.0795284,0.00619661,-0.085725
4.735,-0.0445341,-0.0880138,-0.0434797,0.0765265,-0.000608718,-0.0759178
4.74,-0.0455484,-0.0826836,-0.0371352,0.0740347,-0.00485734,-0.0691774
4.745,-0.0448687,-0.0794761,-0.0346074,0.0717905,-0.00592439,-0.0658661
4.75,-0.0414635,-0.0765772,-0.0351137,0.0681508,-0.00366603,-0.0644848
4.755,-0.034133,-0.0726521,-0.0385191,0.0616524,0.00253229,-0.0641847
4.76,-0.0230768,-0.0683913,-0.0453145,0.0528091,0.0128389,-0.065648
4.765,-0.0116631,-0.0648438,-0.0531808,0.0441713,0.0239703,-0.0681415
4.77,-0.00614809,-0.0616266,-0.0554785,0.0391297,0.0284809,-0.0676106
4.775,-0.00765331,-0.056311,-0.0486577,0.0369298,0.0236739,-0.0606037
4.78,-0.0109737,-0.0487112,-0.0377374,0.0344591,0.015452,-0.0499111
4.785,-0.0104643,-0.0417836,-0.0313193,0.0301653,0.0120407,-0.042206
4.79,-0.00499288,-0.0364691,-0.0314763,0.0239381,0.0152902,-0.0392283
4.795,0.00421146,-0.0311197,-0.0353311,0.0155355,0.0228299,-0.0383654
4.8,0.0166542,-0.025357,-0.0420112,0.00502455,0.0338704,-0.038895
4.805,0.030486,-0.0205306,-0.0510166,-0.00574777,0.0470556,-0.0413078
4.81,0.041375,-0.0180766,-0.0594516,-0.0134514,0.0582123,-0.0447609
4.815,0.0458486,-0.0178139,-0.0636624,-0.0161858,0.0632262,-0.0470403
4.82,0.0447256,-0.0182665,-0.0629921,-0.0152762,0.0621908,-0.0469147
4.825,0.0427249,-0.0188272,-0.0615522,-0.0137974,0.0602044,-0.046407
4.83,0.0417547,-0.0196128,-0.0613675,-0.0127836,0.0595376,-0.046754
4.835,0.0405723,-0.0202419,-0.0608143,-0.0117378,0.0585356,-0.0467978
4.84,0.039591,-0.0201608,-0.0597518,-0.011218,0.0573555,-0.0461376
4.845,0.040372,-0.0194425,-0.0598144,-0.0120836,0.0578426,-0.045759
4.85,0.0428977,-0.0182095,-0.0611073,-0.0142537,0.0600473,-0.0457936
4.855,0.0456827,-0.0164508,-0.0621336,-0.016877,0.0622477,-0.0453707
4.86,0.0454301,-0.0146152,-0.0600453,-0.017791,0.0608962,-0.0431052
4.865,0.038686,-0.0124341,-0.0511201,-0.0151566,0.0518496,-0.036693
4.87,0.0259793,-0.00930277,-0.0352821,-0.0096282,0.0353693,-0.0257411
4.875,0.0102279,-0.00608794,-0.0163159,-0.00239023,0.0153251,-0.0129348
4.88,-0.00562983,-0.0050245,0.000605325,0.00615128,-0.00359987,-0.00255141
4.885,-0.0200525,-0.00753528,0.0125172,0.0159278,-0.0188041,0.00287631
4.89,-0.0331729,-0.0137298,0.019443,0.0270793,-0.0303778,0.0032985
4.895,-0.0442901,-0.0223232,0.0219669,0.0384592,-0.0382535,-0.000205745
4.9,-0.0517971,-0.0307275,0.0210695,0.0476456,-0.0420695,-0.00557605
4.905,-0.0540228,-0.0377123,0.0163105,0.0529633,-0.0406069,-0.0123564
4.91,-0.0516585,-0.0440907,0.00756779,0.0552808,-0.0341943,-0.0210865
4.915,-0.0499429,-0.0507121,-0.000769179,0.0581131,-0.0283904,-0.0297227
4.92,-0.0552859,-0.0570895,-0.00180354,0.0648799,-0.0308781,-0.0340019
4.925,-0.0684681,-0.0620939,0.00637414,0.07538,-0.0432101,-0.0321698
4.93,-0.0827549,-0.0653082,0.0174467,0.0854842,-0.0578514,-0.0276328
4.935,-0.0913042,-0.0667832,0.024521,0.0912718,-0.0668717,-0.0244001
4.94,-0.0938608,-0.0669152,0.0269457,0.092824,-0.0697476,-0.0230764
4.945,-0.0946033,-0.0653797,0.0292236,0.0923662,-0.0714915,-0.0208747
4.95,-0.093661,-0.0623169,0.031344,0.0900538,-0.0721717,-0.0178822
4.955,-0.089711,-0.0585786,0.0311324,0.085615,-0.0697689,-0.015846
4.96,-0.0859956,-0.0550634,0.0309322,0.0814404,-0.0675083,-0.0139321
4.965,-0.0857867,-0.0519801,0.0338066,0.0795396,-0.0690472,-0.0104924
4.97,-0.0877182,-0.0492125,0.0385057,0.079057,-0.0728754,-0.00618159
4.975,-0.0891636,-0.0459289,0.0432347,0.0779956,-0.0764401,-0.00155553
4.98,-0.0891699,-0.0410413,0.0481286,0.0751775,-0.0792693,0.00409184
4.985,-0.0871587,-0.0354895,0.0516692,0.0708109,-0.0801523,0.00934138
4.99,-0.0807191,-0.0323986,0.0483205,0.0653085,-0.074501,0.00919252
4.995,-0.0710084,-0.0327852,0.0382232,0.0599252,-0.0630648,0.00313963
5,-0.0641271,-0.0339562,0.0301709,0.0566284,-0.0544429,-0.00218546
5.005,-0.0619506,-0.0329654,0.0289852,0.0547997,-0.0525018,-0.00229797
5.01,-0.0624421,-0.0295143,0.0329278,0.053091,-0.0550618,0.00197081
5.015,-0.0657145,-0.0254674,0.0402471,0.0526439,-0.061177,0.00853308
5.02,-0.0715718,-0.0216901,0.0498818,0.0538447,-0.0701212,0.0162765
5.025,-0.0758328,-0.0186637,0.0571692,0.0545575,-0.0767887,0.0222312
5.03,-0.0765731,-0.0176654,0.0589077,0.0544086,-0.0782198,0.0238112
5.035,-0.0758928,-0.0191849,0.0567079,0.0548931,-0.076557,0.0216639
5.04,-0.0743864,-0.0228447,0.0515417,0.0561363,-0.0727046,0.0165682
5.045,-0.0705032,-0.0270033,0.0434999,0.0562954,-0.0658197,0.0095243
5.05,-0.0659685,-0.0305385,0.03543,0.0557183,-0.0585424,0.0028241
5.055,-0.0647269,-0.0340098,0.0307171,0.0570057,-0.0551046,-0.00190103
5.06,-0.067776,-0.0370922,0.0306839,0.0605456,-0.0568458,-0.00369983
5.065,-0.0723075,-0.0394599,0.0328477,0.0645289,-0.0607114,-0.00381753
5.07,-0.0751695,-0.0410476,0.0341219,0.067098,-0.0630994,-0.00399858
5.075,-0.075207,-0.0426247,0.0325823,0.0680301,-0.0622321,-0.00579799
5.08,-0.0742569,-0.0447963,0.0294607,0.0687354,-0.0598814,-0.00885401
5.085,-0.0744276,-0.0467737,0.0276539,0.0699756,-0.0589367,-0.0110388
5.09,-0.0747519,-0.0475954,0.0271565,0.0706372,-0.0588369,-0.0118004
5.095,-0.0740018,-0.0476678,0.026334,0.0702459,-0.0579289,-0.012317
5.1,-0.0730449,-0.0482618,0.0247831,0.0700364,-0.056481,-0.0135554
5.105,-0.0717061,-0.0501662,0.02154,0.070363,-0.0538356,-0.0165274
5.11,-0.0708726,-0.0531145,0.0177581,0.0715839,-0.0511709,-0.020413
5.115,-0.0725658,-0.0561404,0.0164255,0.0743085,-0.0513791,-0.0229294
5.12,-0.0762132,-0.0588031,0.0174101,0.0779516,-0.0540534,-0.0238982
5.125,-0.0794396,-0.0612174,0.0182222,0.0812083,-0.056385,-0.0248233
5.13,-0.0806107,-0.0630875,0.0175232,0.0829641,-0.0566576,-0.0263065
5.135,-0.0804215,-0.0646959,0.0157256,0.0837835,-0.0555105,-0.028273
5.14,-0.0814892,-0.0661315,0.0153577,0.0852288,-0.0559146,-0.0293142
5.145,-0.0830913,-0.0666142,0.016477,0.0864325,-0.0574858,-0.0289467
5.15,-0.0814577,-0.0661574,0.0153003,0.0852256,-0.0558632,-0.0293624
5.155,-0.0769432,-0.0659914,0.0109517,0.0825233,-0.0507461,-0.0317772
5.16,-0.074574,-0.0664598,0.00811423,0.0814258,-0.04774,-0.0336858
5.165,-0.0771044,-0.0664661,0.0106383,0.0828904,-0.0506583,-0.0322321
5.17,-0.0824353,-0.066108,0.0163273,0.0857615,-0.0570206,-0.0287409
5.175,-0.0875906,-0.0669052,0.0206854,0.0891981,-0.0625131,-0.026685
5.18,-0.0889417,-0.0687958,0.0201458,0.0910697,-0.0629817,-0.0280881
5.185,-0.0836733,-0.0702685,0.0134048,0.0888783,-0.0560481,-0.0328303
5.19,-0.0752002,-0.0708921,0.00430813,0.0843464,-0.0459042,-0.0384423
5.195,-0.0710457,-0.0708658,0.000179864,0.0819326,-0.0411221,-0.0408105
5.2,-0.0743428,-0.0704874,0.00385537,0.0836177,-0.0451477,-0.03847
5.205,-0.0813713,-0.0704099,0.0109614,0.0876309,-0.0533083,-0.0343226
5.21,-0.0864072,-0.0710964,0.0153108,0.0909347,-0.0587269,-0.0322078
5.215,-0.0864025,-0.073111,0.0132915,0.0920952,-0.0575584,-0.0345368
5.22,-0.0839657,-0.0765387,0.00742704,0.0926672,-0.0527656,-0.0399016
5.225,-0.0836578,-0.0793115,0.00434629,0.0940904,-0.0508092,-0.0432812
5.23,-0.0869078,-0.0791124,0.00779538,0.0958517,-0.0546769,-0.0411749
5.235,-0.0909801,-0.0761429,0.0148372,0.0964885,-0.0610937,-0.0353949
5.24,-0.0926476,-0.0719849,0.0206627,0.0950506,-0.0654197,-0.0296309
5.245,-0.0906481,-0.0671502,0.023498,0.0911048,-0.0659022,-0.0252026
5.25,-0.0859649,-0.0604313,0.0255335,0.0845219,-0.0643736,-0.0201483
5.255,-0.082159,-0.0514274,0.0307316,0.0771261,-0.0651774,-0.0119487
5.26,-0.0823942,-0.0398925,0.0425017,0.0706022,-0.0721087,0.00150646
5.265,-0.0867149,-0.0259666,0.0607483,0.0650567,-0.0851379,0.0200812
5.27,-0.0925119,-0.0110145,0.0814974,0.059771,-0.100464,0.0406933
5.275,-0.096518,0.00376206,0.10028,0.0535526,-0.113621,0.0600687
5.28,-0.0969464,0.018943,0.115889,0.0450352,-0.122881,0.0778455
5.285,-0.093171,0.0350053,0.128176,0.0335819,-0.127795,0.0942129
5.29,-0.0870369,0.05132,0.138357,0.0206211,-0.130131,0.10951
5.295,-0.0812684,0.0663996,0.147668,0.00858455,-0.132176,0.123592
5.3,-0.0771223,0.0790716,0.156194,-0.00112539,-0.134705,0.13583
5.305,-0.07457,0.0884462,0.163016,-0.00801142,-0.13717,0.145182
5.31,-0.0729156,0.0947452,0.167661,-0.0126033,-0.138897,0.1515
5.315,-0.071519,0.0975639,0.169083,-0.015037,-0.138912,0.153949
5.32,-0.07075,0.093342,0.164092,-0.0130435,-0.135586,0.14863
5.325,-0.0712096,0.0791371,0.150347,-0.00457693,-0.127915,0.132492
5.33,-0.0722348,0.0559221,0.128157,0.00941815,-0.115696,0.106278
5.335,-0.0743659,0.0270134,0.101379,0.027339,-0.101467,0.0741276
5.34,-0.0799511,-0.0031111,0.07684,0.047956,-0.0905233,0.0425674
5.345,-0.0882912,-0.0303517,0.0579395,0.0684985,-0.0844263,0.0159278
5.35,-0.0956699,-0.0525053,0.0431646,0.085549,-0.0801561,-0.00539281
5.355,-0.0993996,-0.0694901,0.0299094,0.0975085,-0.0746566,-0.0228519
5.36,-0.0989334,-0.0825047,0.0164288,0.104753,-0.0666044,-0.0381489
5.365,-0.0960847,-0.0918445,0.00424012,0.108501,-0.0579225,-0.0505784
5.37,-0.0939961,-0.0970002,-0.00300407,0.110272,-0.0525343,-0.0577375
5.375,-0.0946856,-0.0994276,-0.004742,0.112071,-0.0519289,-0.0601423
5.38,-0.0974343,-0.101512,-0.00407808,0.114862,-0.0538992,-0.0609627
5.385,-0.0975087,-0.102707,-0.00519813,0.115594,-0.0532955,-0.0622989
5.39,-0.0868063,-0.0951664,-0.0083601,0.105062,-0.0452909,-0.059771
5.395,-0.0605283,-0.0660871,-0.00555881,0.0731014,-0.0317366,-0.0413648
5.4,-0.0270502,-0.00129466,0.0257555,0.0163649,-0.0304874,0.0141225
5.405,-0.00226898,0.113944,0.116213,-0.0644756,-0.0684055,0.132881
5.41,-0.000226508,0.290811,0.291038,-0.167769,-0.168161,0.335931
5.415,-0.0271837,0.523131,0.550315,-0.286335,-0.333419,0.619754
5.42,-0.0809657,0.765367,0.846333,-0.395139,-0.535376,0.930515
5.425,-0.150568,0.936639,1.08721,-0.453838,-0.71463,1.16847
5.43,-0.222711,0.969121,1.19183,-0.430939,-0.816687,1.24763
5.435,-0.284997,0.857461,1.14246,-0.330512,-0.824141,1.15465
5.44,-0.324629,0.659727,0.984356,-0.193469,-0.755742,0.949211
5.445,-0.333884,0.451086,0.78497,-0.0676668,-0.64597,0.713637
5.45,-0.313994,0.278914,0.592908,0.0202535,-0.5236,0.503347
5.455,-0.273389,0.155724,0.429114,0.0679339,-0.40559,0.337656
5.46,-0.22181,0.0740505,0.29586,0.0853087,-0.298876,0.213568
5.465,-0.167999,0.0203591,0.188358,0.0852401,-0.205743,0.120503
5.47,-0.120933,-0.0156466,0.105287,0.0788545,-0.130608,0.0517539
5.475,-0.0887355,-0.0399109,0.0488245,0.074274,-0.0794203,0.00514627
5.48,-0.0740609,-0.0562811,0.0177798,0.075253,-0.0530243,-0.0222287
5.485,-0.07233,-0.0671125,0.00521746,0.0805072,-0.044772,-0.0357351
5.49,-0.075546,-0.0745692,0.000976764,0.086669,-0.0441804,-0.0424886
5.495,-0.0781365,-0.0801349,-0.00199834,0.091378,-0.0439584,-0.0474196
5.5,-0.0756186,-0.0844397,-0.00882114,0.0924096,-0.0385655,-0.0538441
5.505,-0.0650829,-0.0880538,-0.0229709,0.0884134,-0.0243134,-0.0641001
5.51,-0.0491599,-0.0911969,-0.0420371,0.081035,-0.00411233,-0.0769227
5.515,-0.0346791,-0.0933134,-0.0586342,0.0738965,0.0138305,-0.087727
5.52,-0.0288419,-0.0939906,-0.0651487,0.0709174,0.0209617,-0.0918791
5.525,-0.0335643,-0.0920961,-0.0585317,0.07255,0.0144149,-0.0869649
5.53,-0.0425831,-0.087809,-0.0452259,0.0752818,0.00152583,-0.0768077
5.535,-0.0477014,-0.0830727,-0.0353713,0.0755024,-0.00711874,-0.0683837
5.54,-0.0473906,-0.0800403,-0.0326497,0.0735722,-0.00851062,-0.0650616
5.545,-0.0453426,-0.0784097,-0.0330671,0.0714484,-0.00708725,-0.0643611
5.55,-0.0436784,-0.0755689,-0.0318905,0.0688475,-0.00680572,-0.0620417
5.555,-0.0424814,-0.0704897,-0.0280084,0.0652239,-0.00835598,-0.0568679
5.56,-0.040536,-0.0645171,-0.023981,0.0606524,-0.00955802,-0.0510944
5.565,-0.0359038,-0.0588206,-0.0229167,0.0546891,-0.0074981,-0.047191
5.57,-0.028913,-0.0533178,-0.0244048,0.0474759,-0.00260284,-0.0448731
5.575,-0.0225897,-0.048373,-0.0257833,0.0409704,0.00184383,-0.0428142
5.58,-0.0183887,-0.0451892,-0.0268004,0.0367067,0.00485649,-0.0415632
5.585,-0.0132454,-0.0429812,-0.0297358,0.0324625,0.00952068,-0.0419831
5.59,-0.0046621,-0.0400802,-0.0354181,0.025832,0.017757,-0.0435889
5.595,0.0050188,-0.0351637,-0.0401825,0.0174041,0.0260969,-0.0435011
5.6,0.0117141,-0.0279061,-0.0396202,0.00934842,0.0296379,-0.0389863
5.605,0.0140998,-0.0193954,-0.0334952,0.00305743,0.027479,-0.0305364
5.61,0.0140818,-0.0111839,-0.0252657,-0.0016731,0.0227172,-0.0210441
5.615,0.0134217,-0.00394966,-0.0173713,-0.00546866,0.0177783,-0.0123097
5.62,0.0134391,0.00170277,-0.0117363,-0.00874215,0.014535,-0.00579287
5.625,0.0160454,0.004401,-0.0116444,-0.0118047,0.0159867,-0.00418198
5.63,0.024736,0.00414502,-0.020591,-0.0166745,0.0261696,-0.00949508
5.635,0.0402733,0.00166657,-0.0386067,-0.024214,0.0455414,-0.0213274
5.64,0.054867,-0.000926265,-0.0557933,-0.0311427,0.0638897,-0.032747
5.645,0.060481,-0.00107179,-0.0615528,-0.0342999,0.0704562,-0.0361563
5.65,0.0571778,0.00146868,-0.0557091,-0.0338596,0.0651753,-0.0313157
5.655,0.0510243,0.00445716,-0.0465672,-0.0320322,0.0563445,-0.0243122
5.66,0.0481704,0.00709005,-0.0410803,-0.0319046,0.0515289,-0.0196243
5.665,0.0494698,0.00963888,-0.0398309,-0.0341264,0.0515578,-0.0174314
5.67,0.0502006,0.0111314,-0.0390692,-0.03541,0.0515399,-0.0161299
5.675,0.0444806,0.0114386,-0.033042,-0.0322849,0.0447576,-0.0124727
5.68,0.0317467,0.0118229,-0.0199239,-0.0251549,0.029832,-0.00467711
5.685,0.0160636,0.0128205,-0.00324312,-0.0166762,0.0111467,0.00552948
5.69,0.00272546,0.0129866,0.0102611,-0.00907136,-0.00435072,0.0134221
5.695,-0.0045366,0.0108921,0.0154287,-0.00366935,-0.011527,0.0151963
5.7,-0.00882853,0.00622236,0.0150509,0.00150467,-0.0137868,0.0122821
5.705,-0.0155396,-0.000541107,0.0149985,0.00928418,-0.0176311,0.00834695
5.71,-0.0255875,-0.00811727,0.0174702,0.0194594,-0.0248593,0.0053999
5.715,-0.0379939,-0.0157996,0.0221942,0.0310577,-0.0347496,0.00369193
5.72,-0.0529078,-0.023625,0.0292828,0.0441862,-0.0474527,0.00326649
5.725,-0.0674618,-0.0314876,0.0359742,0.0571284,-0.0597188,0.00259036
5.73,-0.076851,-0.0388471,0.0380039,0.0667983,-0.0663115,-0.000486803
5.735,-0.081847,-0.0457141,0.0361328,0.0736474,-0.0681156,-0.00553176
5.74,-0.0861385,-0.0516564,0.0344821,0.0795559,-0.0696403,-0.00991561
5.745,-0.0898775,-0.0558923,0.0339852,0.0841602,-0.0715121,-0.0126481
5.75,-0.0895123,-0.0588068,0.0307055,0.0856321,-0.0694078,-0.0162243
5.755,-0.0862994,-0.0608044,0.025495,0.0849304,-0.0645445,-0.0203859
5.76,-0.0850626,-0.061681,0.0233817,0.0847224,-0.0626103,-0.0221121
5.765,-0.0868091,-0.0617701,0.025039,0.0857822,-0.0645755,-0.0212067
5.77,-0.0904522,-0.0612116,0.0292405,0.0875631,-0.0691046,-0.0184585
5.775,-0.0947394,-0.0595314,0.035208,0.0890682,-0.0750251,-0.0140431
5.78,-0.097625,-0.0569191,0.0407059,0.089226,-0.0798654,-0.00936067
5.785,-0.0974399,-0.0542316,0.0432083,0.0875676,-0.0812033,-0.00636428
5.79,-0.0934748,-0.0522411,0.0412337,0.084129,-0.0777739,-0.0063551
5.795,-0.0872794,-0.0507899,0.0364896,0.0797143,-0.071458,-0.00825628
5.8,-0.0825611,-0.0493569,0.0332042,0.0761628,-0.0668371,-0.00932572
5.805,-0.0810651,-0.0476067,0.0334584,0.0742887,-0.0661201,-0.00816855
5.81,-0.0813024,-0.0452891,0.0360133,0.0730876,-0.0677322,-0.00535536
5.815,-0.0801251,-0.0426365,0.0374887,0.0708764,-0.0679043,-0.00297208
5.82,-0.0768043,-0.0396231,0.0371812,0.0672193,-0.0658095,-0.00140979
5.825,-0.0727015,-0.0369605,0.0357411,0.0633134,-0.0626093,-0.000704007
5.83,-0.0670892,-0.0360158,0.0310734,0.0595277,-0.0566742,-0.00285347
5.835,-0.0609191,-0.037276,0.0236432,0.0566929,-0.048822,-0.00787089
5.84,-0.0578044,-0.0396817,0.0181226,0.0562836,-0.0438365,-0.0124471
5.845,-0.0610114,-0.0420991,0.0189123,0.0595308,-0.0461439,-0.0133869
5.85,-0.0716528,-0.0438826,0.0277702,0.0667044,-0.0574019,-0.0093025
5.855,-0.0861891,-0.0451435,0.0410456,0.0758249,-0.0734589,-0.00236594
5.86,-0.0979103,-0.0474201,0.0504902,0.0839065,-0.0856791,0.00177254
5.865,-0.101445,-0.051247,0.0501979,0.0881567,-0.0875509,-0.000605733
5.87,-0.096221,-0.0550283,0.0411927,0.0873238,-0.0793358,-0.00798795
5.875,-0.0858012,-0.0573985,0.0284027,0.0826763,-0.0659356,-0.0167407
5.88,-0.0752489,-0.0583397,0.0169092,0.0771274,-0.0532075,-0.0239199
5.885,-0.0692674,-0.0593851,0.00988229,0.0742775,-0.0456971,-0.0285805
5.89,-0.0688509,-0.061766,0.00708492,0.0754117,-0.0438416,-0.0315701
5.895,-0.073346,-0.0653134,0.00803266,0.080055,-0.046984,-0.033071
5.9,-0.082529,-0.0699762,0.0125528,0.0880489,-0.0548954,-0.0331534
5.905,-0.0938125,-0.0753473,0.0184652,0.0976644,-0.0648235,-0.0328409
5.91,-0.100943,-0.0803148,0.0206283,0.104649,-0.0701892,-0.03446
5.915,-0.101266,-0.0840228,0.0172433,0.106977,-0.0684215,-0.0385551
5.92,-0.0982824,-0.0863014,0.011981,0.106569,-0.0636606,-0.0429089
5.925,-0.0952638,-0.0878978,0.00736602,0.105748,-0.0592533,-0.046495
5.93,-0.0925222,-0.0899402,0.00258192,0.105345,-0.0549083,-0.0504363
5.935,-0.0883742,-0.0926228,-0.00424854,0.104499,-0.04857,-0.0559287
5.94,-0.0813298,-0.0959282,-0.0145983,0.10234,-0.0385274,-0.0638125
5.945,-0.0741849,-0.100168,-0.0259826,0.100662,-0.0278296,-0.0728328
5.95,-0.0730636,-0.105188,-0.0321247,0.102914,-0.0236361,-0.0792776
5.955,-0.0802885,-0.109074,-0.0287858,0.109329,-0.0297351,-0.0795935
5.96,-0.0916198,-0.109177,-0.0175577,0.11593,-0.0427598,-0.0731706
5.965,-0.099289,-0.10528,-0.00599091,0.118108,-0.0538657,-0.0642422
5.97,-0.0974998,-0.100996,-0.00349649,0.114602,-0.0542728,-0.0603289
5.975,-0.090031,-0.100204,-0.0101734,0.109832,-0.0461057,-0.0637266
5.98,-0.0863942,-0.102305,-0.0159108,0.108945,-0.0406935,-0.0682519
5.985,-0.0886883,-0.10434,-0.015652,0.111445,-0.0421675,-0.0692775
5.99,-0.0923179,-0.105243,-0.0129247,0.114062,-0.0458377,-0.0682238
5.995,-0.095484,-0.104602,-0.00911794,0.11552,-0.0498634,-0.0656561
6,-0.0989307,-0.103784,-0.00485346,0.117037,-0.0543155,-0.062722
6.005,-0.102027,-0.104652,-0.00262473,0.119326,-0.0573898,-0.061936
6.01,-0.102935,-0.107241,-0.00430578,0.121345,-0.0569437,-0.0644015
6.015,-0.101504,-0.109544,-0.00804053,0.121849,-0.053961,-0.0678876
6.02,-0.0986115,-0.110727,-0.0121158,0.120862,-0.0499383,-0.0709235
6.025,-0.094114,-0.111829,-0.0177153,0.118901,-0.0441088,-0.0747925
6.03,-0.0887616,-0.11378,-0.0250185,0.116937,-0.0368021,-0.0801354
6.035,-0.0848462,-0.116341,-0.0314952,0.116156,-0.0308022,-0.0853534
6.04,-0.0843045,-0.119282,-0.0349771,0.11754,-0.0284792,-0.0890612
6.045,-0.0861969,-0.121372,-0.0351752,0.11984,-0.0294573,-0.0903826
6.05,-0.0856718,-0.120754,-0.0350819,0.11918,-0.0292081,-0.0899716
6.055,-0.0790008,-0.116033,-0.0370326,0.112603,-0.0242304,-0.0883726
6.06,-0.0708936,-0.106364,-0.0354706,0.10234,-0.0204515,-0.0818883
6.065,-0.0674134,-0.0929733,-0.02556,0.0925993,-0.0241641,-0.0684352
6.07,-0.0684417,-0.0793084,-0.0108667,0.0853035,-0.0332409,-0.0520626
6.075,-0.0717726,-0.0679441,0.00382847,0.0806654,-0.0436483,-0.0370172
6.08,-0.0758884,-0.0576505,0.0182379,0.0770987,-0.0543439,-0.0227549
6.085,-0.080334,-0.0452687,0.0350652,0.0725167,-0.0666257,-0.005891
6.09,-0.0843459,-0.0301788,0.0541671,0.0661208,-0.0799705,0.0138496
6.095,-0.0866841,-0.013578,0.0731061,0.0578863,-0.0922549,0.0343686
6.1,-0.0883144,0.0035457,0.0918601,0.0489412,-0.104024,0.0550825
6.105,-0.0907469,0.0201016,0.110849,0.040787,-0.116391,0.0756041
6.11,-0.091239,0.0344854,0.125724,0.0327667,-0.125264,0.0924971
6.115,-0.0862079,0.0441109,0.130319,0.0243047,-0.125012,0.100707
6.12,-0.0775146,0.0449621,0.122477,0.0187942,-0.115465,0.0966707
6.125,-0.0687413,0.0344341,0.103175,0.0198073,-0.0992561,0.0794488
6.13,-0.0624542,0.0134262,0.0758804,0.0283063,-0.0798675,0.0515612
6.135,-0.0605084,-0.0148813,0.0456271,0.0435262,-0.0612773,0.0177511
6.14,-0.0612577,-0.046557,0.0147006,0.0622468,-0.0438545,-0.0183923
6.145,-0.0621596,-0.0784055,-0.0162458,0.0811553,-0.0265083,-0.0546469
6.15,-0.0621238,-0.108527,-0.0464033,0.0985252,-0.00907624,-0.089449
6.155,-0.0611024,-0.133877,-0.0727744,0.112571,0.00673883,-0.11931
6.16,-0.0617463,-0.152353,-0.0906066,0.12361,0.0166625,-0.140273
6.165,-0.0644732,-0.16395,-0.099477,0.13188,0.0202094,-0.15209
6.17,-0.0669356,-0.169619,-0.102683,0.136575,0.0206389,-0.157214
6.175,-0.0679859,-0.170636,-0.10265,0.137768,0.0200133,-0.157782
6.18,-0.0698844,-0.169596,-0.0997119,0.138264,0.0172209,-0.155485
6.185,-0.0744125,-0.169016,-0.0946033,0.140543,0.0116571,-0.152201
6.19,-0.0789069,-0.167713,-0.0888061,0.142386,0.00571533,-0.148101
6.195,-0.075747,-0.157953,-0.0822063,0.134927,0.00372927,-0.138656
6.2,-0.0559559,-0.126649,-0.0706932,0.105427,0.00850857,-0.113936
6.205,-0.0206798,-0.0564277,-0.0357479,0.044518,0.00869958,-0.0532176
6.21,0.0126122,0.0712475,0.0586353,-0.0484164,-0.0265714,0.0749878
6.215,0.0224383,0.267602,0.245164,-0.167455,-0.128591,0.296046
6.22,-0.00112583,0.516928,0.518054,-0.297798,-0.299748,0.597546
6.225,-0.0560269,0.758464,0.814491,-0.405552,-0.502594,0.908146
6.23,-0.130257,0.905099,1.03536,-0.447355,-0.672966,1.12032
6.235,-0.206448,0.899149,1.1056,-0.399931,-0.757509,1.15744
6.24,-0.268288,0.7532,1.02149,-0.279964,-0.744651,1.02462
6.245,-0.304079,0.536615,0.840694,-0.134255,-0.660935,0.795189
6.25,-0.30807,0.323147,0.631216,-0.00870463,-0.542297,0.551001
6.255,-0.281074,0.154773,0.435847,0.0729195,-0.413914,0.340995
6.26,-0.23103,0.040464,0.271494,0.110023,-0.290133,0.180109
6.265,-0.17246,-0.0314796,0.140981,0.117745,-0.180965,0.0632206
6.27,-0.120887,-0.0771902,0.0436964,0.11436,-0.095022,-0.0193377
6.275,-0.0875467,-0.106962,-0.0194154,0.1123,-0.0393356,-0.0729641
6.28,-0.0748184,-0.125909,-0.0510905,0.11589,-0.0136993,-0.102191
6.285,-0.0755926,-0.137132,-0.0615389,0.122816,-0.00811393,-0.114702
6.29,-0.0781157,-0.143763,-0.065647,0.128101,-0.00719881,-0.120903
6.295,-0.0753939,-0.148162,-0.0727685,0.12907,-0.00151577,-0.127554
6.3,-0.068841,-0.151483,-0.0826424,0.127204,0.00796824,-0.135172
6.305,-0.0600919,-0.154005,-0.0939134,0.123609,0.0195268,-0.143136
6.31,-0.0497237,-0.155951,-0.106228,0.118746,0.0326225,-0.151369
6.315,-0.0412772,-0.157814,-0.116536,0.114945,0.0434509,-0.158396
6.32,-0.0380627,-0.159649,-0.121586,0.114149,0.0482223,-0.162371
6.325,-0.0389033,-0.15965,-0.120747,0.114635,0.0472523,-0.161887
6.33,-0.0395331,-0.156641,-0.117108,0.113261,0.0447876,-0.158049
6.335,-0.0366975,-0.152582,-0.115884,0.10928,0.0457184,-0.154999
6.34,-0.0303798,-0.148815,-0.118435,0.103458,0.0508385,-0.154296
6.345,-0.0255133,-0.145572,-0.120059,0.0987762,0.0545859,-0.153362
6.35,-0.0271373,-0.142081,-0.114944,0.0976982,0.0506951,-0.148393
6.355,-0.0346871,-0.136633,-0.101945,0.0989114,0.0388316,-0.137743
6.36,-0.0431794,-0.128721,-0.085542,0.099247,0.024458,-0.123705
6.365,-0.0464416,-0.119608,-0.0731669,0.095869,0.0154298,-0.111299
6.37,-0.0417153,-0.11139,-0.069675,0.0883956,0.0161425,-0.104538
6.375,-0.0316047,-0.10561,-0.0740053,0.0792209,0.02448,-0.103701
6.38,-0.0209531,-0.101465,-0.0805122,0.0706782,0.0343864,-0.105065
6.385,-0.0143459,-0.0975211,-0.0831752,0.0645865,0.0397386,-0.104325
6.39,-0.0129893,-0.093697,-0.0807077,0.0615953,0.0390972,-0.100693
6.395,-0.0141893,-0.0905305,-0.0763412,0.06046,0.0358834,-0.0963434
6.4,-0.0141294,-0.08842,-0.0742906,0.0592069,0.034734,-0.093941
6.405,-0.00907782,-0.0873878,-0.07831,0.0556944,0.0399712,-0.0956656
6.41,0.00164813,-0.0869558,-0.0886039,0.0492524,0.052107,-0.101359
6.415,0.0161321,-0.0852839,-0.101416,0.0399248,0.0678664,-0.107791
6.42,0.0322631,-0.0806868,-0.11295,0.0279574,0.0838387,-0.111796
6.425,0.0466155,-0.0740572,-0.120673,0.0158435,0.0965838,-0.112427
6.43,0.0562853,-0.0683285,-0.124614,0.00695314,0.104442,-0.111395
6.435,0.0603064,-0.065016,-0.125322,0.00271907,0.107173,-0.109892
6.44,0.0596172,-0.0631553,-0.122772,0.00204275,0.105303,-0.107345
6.445,0.0572536,-0.0624633,-0.119717,0.00300783,0.102174,-0.105182
6.45,0.0557216,-0.0634765,-0.119198,0.00447727,0.10099,-0.105467
6.455,0.0553145,-0.0649166,-0.120231,0.00554376,0.101351,-0.106895
6.46,0.0563675,-0.0653178,-0.121685,0.00516746,0.102799,-0.107966
6.465,0.0586679,-0.0647655,-0.123433,0.00352044,0.105136,-0.108657
6.47,0.0598353,-0.0632882,-0.123123,0.0019935,0.105631,-0.107625
6.475,0.0579503,-0.0600895,-0.11804,0.0012351,0.101608,-0.102843
6.48,0.0522509,-0.0560054,-0.108256,0.00216771,0.0926688,-0.0948365
6.485,0.0415961,-0.0527512,-0.0943473,0.00644037,0.078487,-0.0849273
6.49,0.0259663,-0.0519673,-0.0779336,0.0150117,0.0599866,-0.0749983
6.495,0.00820245,-0.0547072,-0.0629097,0.0268495,0.0410566,-0.0679061
6.5,-0.00735984,-0.0601688,-0.052809,0.0389877,0.0262401,-0.0652277
6.505,-0.0179466,-0.0674942,-0.0495476,0.0493293,0.0182448,-0.0675741
6.51,-0.0250159,-0.0760275,-0.0510115,0.0583374,0.0150086,-0.073346
6.515,-0.0302421,-0.0854249,-0.0551829,0.0667803,0.0143996,-0.0811799
6.52,-0.0314778,-0.0949163,-0.0634385,0.0729736,0.0184525,-0.0914262
6.525,-0.0302738,-0.104036,-0.0737625,0.0775439,0.0251082,-0.102652
6.53,-0.032972,-0.113008,-0.0800361,0.0842815,0.0271725,-0.111454
6.535,-0.042571,-0.121353,-0.0787817,0.0946414,0.0209063,-0.115548
6.54,-0.0554752,-0.127387,-0.0719116,0.105575,0.00948951,-0.115065
6.545,-0.0643701,-0.129897,-0.0655272,0.11216,0.000668055,-0.112828
6.55,-0.0681169,-0.128939,-0.0608219,0.11377,-0.00421177,-0.109558
6.555,-0.0698697,-0.127165,-0.057295,0.113758,-0.00726001,-0.106498
6.56,-0.0718562,-0.126908,-0.0550521,0.114757,-0.00970185,-0.105055
6.565,-0.0768395,-0.126968,-0.0501284,0.117668,-0.0154217,-0.102246
6.57,-0.0841341,-0.125213,-0.0410791,0.120867,-0.0248578,-0.0960088
6.575,-0.0903565,-0.121324,-0.0309679,0.122214,-0.034288,-0.0879259
6.58,-0.0926114,-0.117376,-0.0247645,0.121236,-0.0391714,-0.0820647
6.585,-0.0908753,-0.114771,-0.0238958,0.11873,-0.0386706,-0.0800594
6.59,-0.0878946,-0.112717,-0.0248225,0.115823,-0.0364147,-0.0794085
6.595,-0.0845915,-0.110653,-0.0260616,0.112725,-0.0337922,-0.0789323
6.6,-0.0799463,-0.108526,-0.0285792,0.108814,-0.0296568,-0.0791574
6.605,-0.0746413,-0.106505,-0.031864,0.104585,-0.0246975,-0.0798875
6.61,-0.0689868,-0.105248,-0.0362613,0.100594,-0.018894,-0.0817005
6.615,-0.0612004,-0.103763,-0.0425623,0.0952414,-0.0107607,-0.0844808
6.62,-0.0525811,-0.100921,-0.0483394,0.0886241,-0.00244892,-0.0861752
6.625,-0.0476451,-0.0978884,-0.0502433,0.0840238,0.00150009,-0.0855239
6.63,-0.0490042,-0.0955143,-0.0465101,0.0834377,-0.00143993,-0.0819978
6.635,-0.0555608,-0.0932345,-0.0376737,0.085907,-0.0103271,-0.0755799
6.64,-0.0622274,-0.0917251,-0.0294977,0.0888845,-0.0188965,-0.069988
6.645,-0.0652778,-0.0931068,-0.027829,0.0914434,-0.0216211,-0.0698223
6.65,-0.0672767,-0.0971199,-0.0298432,0.0949144,-0.0216122,-0.0733021
6.655,-0.071762,-0.0999928,-0.0282308,0.0991626,-0.0251327,-0.0740299
6.66,-0.0777335,-0.0998223,-0.0220888,0.102512,-0.0321265,-0.0703854
6.665,-0.08271,-0.0990436,-0.0163336,0.104935,-0.0383224,-0.066613
6.67,-0.0841093,-0.100408,-0.0162988,0.106531,-0.0391504,-0.0673807
6.675,-0.080361,-0.10378,-0.0234188,0.106314,-0.0328756,-0.0734382
6.68,-0.0749552,-0.107449,-0.0324936,0.105311,-0.0245152,-0.0807958
6.685,-0.0724316,-0.110832,-0.0384001,0.105807,-0.0196481,-0.086159
6.69,-0.0727604,-0.115668,-0.0429074,0.108789,-0.0172356,-0.0915534
6.695,-0.072629,-0.122098,-0.0494687,0.112425,-0.0133716,-0.0990539
6.7,-0.0678381,-0.127657,-0.0598193,0.112869,-0.00462964,-0.10824
6.705,-0.0599475,-0.131894,-0.0719461,0.11076,0.00692737,-0.117687
6.71,-0.0563024,-0.133916,-0.0776132,0.109822,0.0123038,-0.122126
6.715,-0.0598469,-0.133311,-0.0734637,0.11152,0.00786165,-0.119381
6.72,-0.0667054,-0.131779,-0.0650736,0.114595,-0.000942092,-0.113653
6.725,-0.0705072,-0.131386,-0.0608793,0.116563,-0.00555868,-0.111005
6.73,-0.0685247,-0.13331,-0.0647851,0.116529,-0.00215907,-0.11437
6.735,-0.0653103,-0.13721,-0.0719,0.116925,0.00380459,-0.12073
6.74,-0.0662161,-0.141047,-0.0748305,0.119663,0.0049735,-0.124637
6.745,-0.0718038,-0.144196,-0.0723918,0.124707,0.000339516,-0.125047
6.75,-0.0803917,-0.146826,-0.066434,0.131184,-0.00805846,-0.123125
6.755,-0.089043,-0.149003,-0.0599604,0.137436,-0.0167908,-0.120645
6.76,-0.0946413,-0.151027,-0.056386,0.141837,-0.0220867,-0.11975
6.765,-0.0959418,-0.152024,-0.0560825,0.143163,-0.0230127,-0.12015
6.77,-0.0939759,-0.152249,-0.0582733,0.142158,-0.0206129,-0.121545
6.775,-0.0899907,-0.153171,-0.0631799,0.140389,-0.0154792,-0.12491
6.78,-0.0836192,-0.154303,-0.0706835,0.137364,-0.0074684,-0.129896
6.785,-0.0745106,-0.155146,-0.080635,0.132592,0.00353594,-0.136128
6.79,-0.0644364,-0.155812,-0.0913753,0.12716,0.0155531,-0.142713
6.795,-0.0568443,-0.156318,-0.0994738,0.123069,0.0246121,-0.147681
6.8,-0.0542469,-0.156182,-0.101935,0.121491,0.0275326,-0.149024
6.805,-0.0553611,-0.153829,-0.0984682,0.120776,0.0248879,-0.145664
6.81,-0.0572828,-0.147177,-0.0898943,0.118045,0.0188282,-0.136873
6.815,-0.0591254,-0.137368,-0.078243,0.113446,0.0110375,-0.124483
6.82,-0.0584503,-0.127301,-0.0688512,0.107244,0.00600495,-0.113249
6.825,-0.057412,-0.118103,-0.060691,0.101334,0.00189311,-0.103227
6.83,-0.0624612,-0.109105,-0.0466434,0.0990535,-0.00913241,-0.089921
6.835,-0.0736178,-0.0988123,-0.0251945,0.0995525,-0.0279572,-0.0715953
6.84,-0.0848418,-0.0858242,-0.000982322,0.098534,-0.0484163,-0.0501177
6.845,-0.091478,-0.0694426,0.0220354,0.0929075,-0.065537,-0.0273706
6.85,-0.0922323,-0.0507782,0.0414541,0.0825671,-0.0771838,-0.0053833
6.855,-0.0878981,-0.0326592,0.0552389,0.0696037,-0.0826401,0.0130364
6.86,-0.0818707,-0.0168709,0.0649998,0.0570084,-0.0847957,0.0277873
6.865,-0.0771767,-0.00327582,0.0739008,0.0464492,-0.0872246,0.0407754
6.87,-0.0732709,0.00617061,0.0794415,0.0387403,-0.0881685,0.0494281
6.875,-0.0681084,0.00595493,0.0740633,0.0358843,-0.0820829,0.0461986
6.88,-0.0614833,-0.00773126,0.053752,0.039961,-0.0665311,0.0265701
6.885,-0.0550712,-0.0328661,0.0222051,0.0507706,-0.0446155,-0.00615511
6.89,-0.051672,-0.0645149,-0.0128429,0.0670805,-0.0224179,-0.0446626
6.895,-0.0538364,-0.0975432,-0.0437068,0.087399,-0.00584835,-0.0815507
6.9,-0.0605673,-0.126826,-0.0662584,0.108191,0.00328576,-0.111477
6.905,-0.0675453,-0.149938,-0.0823931,0.125564,0.00857239,-0.134137
6.91,-0.0700287,-0.167042,-0.097013,0.136873,0.0155794,-0.152452
6.915,-0.067512,-0.179033,-0.111521,0.142343,0.0254088,-0.167752
6.92,-0.0641015,-0.186556,-0.122454,0.144717,0.0336899,-0.178407
6.925,-0.0622479,-0.190351,-0.128103,0.145838,0.0380213,-0.183859
6.93,-0.0615595,-0.191519,-0.129959,0.146115,0.0394905,-0.185605
6.935,-0.0617898,-0.191462,-0.129672,0.146215,0.0391918,-0.185407
6.94,-0.0632599,-0.192363,-0.129103,0.147584,0.0380148,-0.185599
6.945,-0.0628003,-0.192013,-0.129213,0.147117,0.0383433,-0.18546
6.95,-0.0532868,-0.178127,-0.12484,0.133607,0.0413113,-0.174918
6.955,-0.0292779,-0.132391,-0.103113,0.0933395,0.0426288,-0.135968
6.96,0.00340252,-0.0375958,-0.0409983,0.0197415,0.0256348,-0.0453763
6.965,0.0264182,0.119676,0.0932573,-0.0843472,-0.0385895,0.122937
6.97,0.023049,0.342593,0.319544,-0.211104,-0.171182,0.382285
6.975,-0.012511,0.602378,0.614888,-0.340559,-0.362229,0.702789
6.98,-0.0764818,0.825502,0.901984,-0.432447,-0.564917,0.997364
6.985,-0.157039,0.925602,1.08264,-0.44373,-0.715729,1.15946
6.99,-0.235712,0.864647,1.10036,-0.363116,-0.77138,1.1345
6.995,-0.29116,0.678987,0.970147,-0.223912,-0.728216,0.952128
7,-0.309519,0.446362,0.755881,-0.0790061,-0.615109,0.694115
7.005,-0.291463,0.235862,0.527325,0.0321014,-0.472728,0.440626
7.01,-0.25052,0.0816462,0.332166,0.097499,-0.336413,0.238914
7.015,-0.203777,-0.0135835,0.190194,0.125493,-0.227459,0.101966
7.02,-0.162711,-0.064075,0.0986355,0.130935,-0.150888,0.0199535
7.025,-0.130989,-0.0889125,0.042077,0.12696,-0.0999199,-0.0270404
7.03,-0.107829,-0.103394,0.0044347,0.121949,-0.0648152,-0.0571341
7.035,-0.0908515,-0.115585,-0.0247338,0.119186,-0.038173,-0.0810133
7.04,-0.0776965,-0.128329,-0.0506324,0.118949,-0.0156254,-0.103323
7.045,-0.067865,-0.141615,-0.0737501,0.120943,0.00339775,-0.124341
7.05,-0.0615015,-0.153169,-0.0916671,0.12394,0.0174161,-0.141356
7.055,-0.0575926,-0.161024,-0.103431,0.126218,0.0264649,-0.152683
7.06,-0.0544295,-0.164543,-0.110113,0.126424,0.032149,-0.158573
7.065,-0.0511841,-0.163966,-0.112782,0.124217,0.0355634,-0.15978
7.07,-0.0481445,-0.161628,-0.113483,0.121112,0.0377234,-0.158835
7.075,-0.0440128,-0.15956,-0.115547,0.117533,0.0413002,-0.158833
7.08,-0.0376289,-0.158658,-0.121029,0.113326,0.0481511,-0.161477
7.085,-0.0307895,-0.15836,-0.127571,0.109206,0.0558766,-0.165082
7.09,-0.0260078,-0.156203,-0.130196,0.1052,0.0601528,-0.165352
7.095,-0.0259033,-0.151276,-0.125373,0.102295,0.0574288,-0.159723
7.1,-0.0304599,-0.1443,-0.11384,0.100897,0.0481393,-0.149037
7.105,-0.0352883,-0.136903,-0.101615,0.0994149,0.0382938,-0.137709
7.11,-0.0362489,-0.130972,-0.0947235,0.0965452,0.0337603,-0.130305
7.115,-0.0325646,-0.126949,-0.0943845,0.0920952,0.0356918,-0.127787
7.12,-0.0249335,-0.123992,-0.0990583,0.085982,0.0427959,-0.128778
7.125,-0.0146391,-0.12127,-0.106631,0.0784672,0.0531116,-0.131579
7.13,-0.00439877,-0.118926,-0.114527,0.0712013,0.0635824,-0.134784
7.135,0.00130557,-0.115375,-0.116681,0.0658581,0.0681194,-0.133977
7.14,0.000386046,-0.108922,-0.109308,0.0626632,0.0633319,-0.125995
7.145,-0.00554419,-0.100085,-0.0945404,0.0609848,0.0513819,-0.112367
7.15,-0.013035,-0.0897499,-0.0767149,0.0593429,0.0367656,-0.0961085
7.155,-0.0176079,-0.0795397,-0.0619318,0.0560882,0.0255904,-0.0816786
7.16,-0.0161332,-0.0712498,-0.0551166,0.0504506,0.0225071,-0.0729577
7.165,-0.00633273,-0.0659913,-0.0596586,0.0417563,0.0307877,-0.072544
7.17,0.0120863,-0.0647477,-0.076834,0.0304041,0.0513381,-0.0817422
7.175,0.0334972,-0.0667773,-0.100275,0.0192143,0.0772332,-0.0964474
7.18,0.0496711,-0.0689481,-0.118619,0.0111296,0.0971624,-0.108292
7.185,0.0571407,-0.0694929,-0.126634,0.00713153,0.106102,-0.113234
7.19,0.0597844,-0.0683809,-0.128165,0.00496318,0.108513,-0.113476
7.195,0.0631641,-0.0669658,-0.13013,0.00219489,0.111598,-0.113793
7.2,0.0680633,-0.0661982,-0.134262,-0.00107681,0.116812,-0.115735
7.205,0.0704507,-0.0659565,-0.136407,-0.00259476,0.119429,-0.116835
7.21,0.0684427,-0.0656743,-0.134117,-0.00159834,0.116948,-0.115349
7.215,0.0629804,-0.0657027,-0.128683,0.00157171,0.110657,-0.112229
7.22,0.057341,-0.0661708,-0.123512,0.00509787,0.104415,-0.109513
7.225,0.0559243,-0.0648976,-0.120822,0.00518075,0.102044,-0.107225
7.23,0.0569741,-0.0610693,-0.118043,0.00236433,0.101046,-0.103411
7.235,0.0537382,-0.0559437,-0.109682,0.00127337,0.0943505,-0.0956239
7.24,0.042789,-0.0512546,-0.0940436,0.00488764,0.0790003,-0.0838879
7.245,0.026087,-0.0473807,-0.0734677,0.0122939,0.0574779,-0.0697718
7.25,0.00824649,-0.044879,-0.0531255,0.0211498,0.0354331,-0.0565829
7.255,-0.00612955,-0.0463908,-0.0402612,0.0303226,0.0197059,-0.0500286
7.26,-0.01609,-0.0532312,-0.0371411,0.0400226,0.0121538,-0.0521764
7.265,-0.025074,-0.0640404,-0.0389664,0.0514502,0.00802078,-0.0594709
7.27,-0.0354609,-0.0760767,-0.0406157,0.0643962,0.00297614,-0.0673724
7.275,-0.0464161,-0.0857151,-0.039299,0.076286,-0.00410911,-0.0721769
7.28,-0.0547178,-0.0919285,-0.0372107,0.0846663,-0.0101078,-0.0745585
7.285,-0.0590202,-0.0969886,-0.0379683,0.0900717,-0.0121543,-0.0779174
7.29,-0.0607604,-0.102735,-0.0419741,0.0943938,-0.0108463,-0.0835476
7.295,-0.060653,-0.109966,-0.0493133,0.098507,-0.00654695,-0.0919601
7.3,-0.0591486,-0.118289,-0.0591409,0.102444,-4.45E-06,-0.102439
7.305,-0.0570027,-0.124613,-0.0676104,0.104856,0.00612431,-0.11098
7.31,-0.0551691,-0.12671,-0.0715409,0.105008,0.00945229,-0.11446
7.315,-0.054539,-0.125352,-0.0708135,0.10386,0.0093961,-0.113256
7.32,-0.055775,-0.12157,-0.0657947,0.10239,0.00578486,-0.108175
7.325,-0.0573015,-0.115435,-0.0581332,0.0997292,0.000480178,-0.100209
7.33,-0.0586638,-0.107654,-0.0489902,0.0960236,-0.00558505,-0.0904385
7.335,-0.0629877,-0.0991896,-0.0362018,0.0936331,-0.0154648,-0.0781682
7.34,-0.0712109,-0.0906978,-0.0194868,0.093478,-0.0298629,-0.0636151
7.345,-0.079705,-0.0830657,-0.00336076,0.0939757,-0.0440773,-0.0498983
7.35,-0.0827049,-0.0776646,0.00504022,0.0925893,-0.0506596,-0.0419297
7.355,-0.0773686,-0.0743481,0.00302044,0.0875936,-0.0464126,-0.041181
7.36,-0.0680986,-0.0714144,-0.00331575,0.0805478,-0.0374024,-0.0431454
7.365,-0.0625205,-0.0689123,-0.00639179,0.0758828,-0.0324059,-0.0434768
7.37,-0.0640471,-0.0675748,-0.00352769,0.0759919,-0.0349409,-0.041051
7.375,-0.0688938,-0.0668201,0.00207369,0.0783544,-0.0409731,-0.0373814
7.38,-0.0709863,-0.066102,0.0048843,0.0791479,-0.0438039,-0.035344
7.385,-0.0688588,-0.0654456,0.00341322,0.0775407,-0.0417263,-0.0358144
7.39,-0.065668,-0.0655382,0.000129804,0.0757519,-0.0379883,-0.0377635
7.395,-0.0633375,-0.0666668,-0.00332939,0.075058,-0.0346457,-0.0404123
7.4,-0.0604711,-0.0690958,-0.00862472,0.0748054,-0.0299335,-0.0448719
7.405,-0.0566154,-0.0723414,-0.015726,0.0744532,-0.0236075,-0.0508457
7.41,-0.0543124,-0.0748702,-0.0205578,0.0745835,-0.0194882,-0.0550954
7.415,-0.0543723,-0.0754635,-0.0210912,0.0749607,-0.0192148,-0.0557459
7.42,-0.0554879,-0.0747538,-0.019266,0.075195,-0.0209127,-0.0542823
7.425,-0.0568879,-0.0746366,-0.0177487,0.0759357,-0.022597,-0.0533387
7.43,-0.0575665,-0.0754857,-0.0179192,0.0768177,-0.0228904,-0.0539273
7.435,-0.0555732,-0.0773347,-0.0217616,0.0767344,-0.0195211,-0.0572132
7.44,-0.0505496,-0.079996,-0.0294464,0.0753705,-0.012184,-0.0631865
7.445,-0.0448571,-0.0825396,-0.0376825,0.0735524,-0.00414223,-0.0694102
7.45,-0.04221,-0.0845114,-0.0423014,0.0731626,5.28E-05,-0.0732153
7.455,-0.0445607,-0.0871659,-0.0426052,0.0760523,-0.00112899,-0.0749233
7.46,-0.0506365,-0.0907976,-0.0401611,0.081657,-0.00604795,-0.075609
7.465,-0.0576151,-0.0933805,-0.0357653,0.0871773,-0.012615,-0.0745623
7.47,-0.0628603,-0.0939574,-0.0310971,0.0905387,-0.0183385,-0.0722003
7.475,-0.0651348,-0.0940797,-0.0289449,0.0919225,-0.0208943,-0.0710282
7.48,-0.0650866,-0.0949225,-0.0298359,0.0923813,-0.020352,-0.0720293
7.485,-0.0632103,-0.0959951,-0.0327848,0.0919172,-0.0175662,-0.0743511
7.49,-0.0596788,-0.0973125,-0.0376337,0.0906389,-0.0127277,-0.0779112
7.495,-0.0555874,-0.0987352,-0.0431478,0.0890981,-0.007182,-0.0819161
7.5,-0.0537842,-0.098929,-0.0451448,0.0881689,-0.00498795,-0.083181
7.505,-0.0565949,-0.0983947,-0.0417998,0.0894832,-0.00854198,-0.0809413
7.51,-0.0625713,-0.0984503,-0.035879,0.0929658,-0.0154108,-0.077555
7.515,-0.0672635,-0.099256,-0.0319925,0.09614,-0.0203637,-0.0757763
7.52,-0.0668506,-0.100172,-0.0333209,0.0964302,-0.0193583,-0.0770719
7.525,-0.063613,-0.100744,-0.0371311,0.0948916,-0.0152893,-0.0796023
7.53,-0.06278,-0.10111,-0.0383302,0.094622,-0.0141161,-0.0805059
7.535,-0.0663813,-0.100869,-0.0344877,0.096562,-0.0184138,-0.0781482
7.54,-0.0730829,-0.100156,-0.0270733,0.10002,-0.0265636,-0.073456
7.545,-0.0789933,-0.0995912,-0.0205979,0.103106,-0.0337146,-0.0693912
7.55,-0.0809712,-0.0995338,-0.0185626,0.104215,-0.0360316,-0.0681829
7.555,-0.0784435,-0.0995298,-0.0210863,0.102753,-0.0331152,-0.0696377
7.56,-0.0715082,-0.100114,-0.0286056,0.099086,-0.0247698,-0.0743161
7.565,-0.0631211,-0.102301,-0.0391802,0.0955066,-0.0138222,-0.0816844
7.57,-0.0582795,-0.105905,-0.0476252,0.0947918,-0.00615128,-0.0886405
7.575,-0.0583,-0.109218,-0.0509179,0.0967164,-0.00426208,-0.0924544
7.58,-0.0617891,-0.109927,-0.0481379,0.0991404,-0.00788152,-0.0912588
7.585,-0.0663477,-0.107556,-0.041208,0.100403,-0.0145144,-0.0858888
7.59,-0.0698229,-0.103649,-0.0338258,0.100154,-0.0207829,-0.0793708
7.595,-0.0726456,-0.0999284,-0.0272827,0.0996356,-0.0261903,-0.0734453
7.6,-0.0756625,-0.0973255,-0.021663,0.0998747,-0.0311766,-0.068698
7.605,-0.0784952,-0.0958298,-0.0173345,0.100647,-0.0353111,-0.0653354
7.61,-0.0805534,-0.0950502,-0.0144968,0.101385,-0.0381378,-0.0632469
7.615,-0.0809189,-0.0937823,-0.0128634,0.100864,-0.0392918,-0.0615719
7.62,-0.0785288,-0.0905348,-0.012006,0.0976089,-0.038407,-0.059202
7.625,-0.0716559,-0.0844829,-0.012827,0.0901467,-0.0339649,-0.0561818
7.63,-0.0595195,-0.0758706,-0.0163511,0.0781675,-0.0249233,-0.0532442
7.635,-0.0463321,-0.0654038,-0.0190716,0.0645107,-0.0157389,-0.0487719
7.64,-0.0384776,-0.0543958,-0.0159181,0.0536205,-0.0130247,-0.0405957
7.645,-0.0396681,-0.0443778,-0.00470963,0.0485239,-0.0201833,-0.0283406
7.65,-0.0476872,-0.0343501,0.0133371,0.0473642,-0.0352324,-0.0121319
7.655,-0.0562698,-0.023156,0.0331138,0.0458565,-0.0516056,0.00574911
7.66,-0.0612639,-0.0103513,0.0509126,0.041347,-0.0647651,0.0234181
7.665,-0.0637325,0.00561372,0.0693462,0.0335549,-0.0768329,0.0432781
7.67,-0.0677737,0.0250967,0.0928704,0.0246396,-0.0927479,0.0681083
7.675,-0.0732438,0.0452035,0.118447,0.0161891,-0.110673,0.0944838
7.68,-0.0765076,0.0613691,0.137877,0.0087402,-0.123775,0.115035
7.685,-0.0757231,0.069314,0.145037,0.00370029,-0.127456,0.123756
7.69,-0.0697297,0.0660275,0.135757,0.00213741,-0.118638,0.1165
7.695,-0.05674,0.0506027,0.107343,0.00354337,-0.0947331,0.0911897
7.7,-0.040556,0.0248864,0.0654425,0.00904683,-0.0611982,0.0521514
7.705,-0.0305554,-0.00695701,0.0235984,0.0216578,-0.0312657,0.00960791
7.71,-0.0334545,-0.038495,-0.00504049,0.04154,-0.0164048,-0.0251352
7.715,-0.0486424,-0.0641126,-0.0154702,0.0650991,-0.019152,-0.0459472
7.72,-0.0687264,-0.0833455,-0.0146192,0.0877987,-0.0312388,-0.0565599
7.725,-0.0849374,-0.0989271,-0.0139897,0.106154,-0.0409617,-0.0651925
7.73,-0.0932542,-0.112546,-0.0192914,0.118818,-0.0427024,-0.0761161
7.735,-0.0947312,-0.12363,-0.0288993,0.126071,-0.038008,-0.0880631
7.74,-0.0912535,-0.131745,-0.0404918,0.128748,-0.0293073,-0.0994411
7.745,-0.0838778,-0.1365,-0.0526222,0.127235,-0.0180454,-0.10919
7.75,-0.0732861,-0.138558,-0.0652718,0.122308,-0.00462705,-0.117681
7.755,-0.0617882,-0.139117,-0.077329,0.115993,0.00897248,-0.124965
7.76,-0.0508008,-0.134545,-0.0837443,0.107009,0.0190199,-0.126029
7.765,-0.0368296,-0.113887,-0.0770575,0.0870163,0.0232255,-0.110242
7.77,-0.0180857,-0.060938,-0.0428523,0.0456243,0.014299,-0.0599233
7.775,-0.000331419,0.0415384,0.0418698,-0.0237908,-0.0243649,0.0481557
7.78,0.00633929,0.204803,0.198464,-0.121903,-0.110923,0.232826
7.785,-0.0050249,0.426016,0.431041,-0.243059,-0.251762,0.494822
7.79,-0.0378927,0.67176,0.709652,-0.365963,-0.431595,0.797558
7.795,-0.0922549,0.869351,0.961606,-0.448657,-0.608447,1.0571
7.8,-0.159174,0.943908,1.10308,-0.453066,-0.728764,1.18183
7.805,-0.222046,0.869418,1.09146,-0.373761,-0.758355,1.13212
7.81,-0.265755,0.686399,0.952154,-0.242859,-0.70316,0.946019
7.815,-0.282676,0.469386,0.752063,-0.107797,-0.597407,0.705204
7.82,-0.272838,0.278277,0.551114,-0.00314027,-0.475709,0.478849
7.825,-0.24288,0.13694,0.37982,0.0611643,-0.359515,0.298351
7.83,-0.201901,0.0426722,0.244573,0.0919307,-0.257772,0.165841
7.835,-0.157449,-0.0172982,0.140151,0.10089,-0.17182,0.0709291
7.84,-0.115679,-0.0560539,0.0596254,0.0991502,-0.101212,0.00206198
7.845,-0.0836182,-0.0828696,0.000748642,0.0961218,-0.0487092,-0.0474125
7.85,-0.0663083,-0.101315,-0.0350065,0.0967772,-0.0180721,-0.0787051
7.855,-0.0629954,-0.111171,-0.048176,0.100555,-0.00855596,-0.0919992
7.86,-0.0669474,-0.114098,-0.0471507,0.104527,-0.0114296,-0.093097
7.865,-0.069605,-0.114188,-0.0445834,0.106113,-0.0144462,-0.0916669
7.87,-0.0671336,-0.115183,-0.0480491,0.10526,-0.0110184,-0.0942419
7.875,-0.0598135,-0.11805,-0.058236,0.102689,-0.000910798,-0.101778
7.88,-0.0486203,-0.121206,-0.072586,0.0980493,0.0138366,-0.111886
7.885,-0.0343861,-0.124055,-0.0896687,0.0914759,0.0319174,-0.123393
7.89,-0.0206872,-0.126099,-0.105412,0.0847471,0.0489158,-0.133663
7.895,-0.0126936,-0.126062,-0.113368,0.0801104,0.0581245,-0.138235
7.9,-0.0131814,-0.122825,-0.109643,0.0785232,0.0556923,-0.134216
7.905,-0.0190047,-0.116982,-0.0979776,0.0785121,0.045595,-0.124107
7.91,-0.0249091,-0.110224,-0.0853149,0.0780191,0.0348753,-0.112894
7.915,-0.0285411,-0.104096,-0.0755546,0.0765778,0.0271433,-0.103721
7.92,-0.028765,-0.0984757,-0.0697107,0.0734624,0.02364,-0.0971024
7.925,-0.0266355,-0.0926908,-0.0660553,0.0688931,0.022759,-0.0916521
7.93,-0.0250703,-0.0867776,-0.0617073,0.0645754,0.0211523,-0.0857277
7.935,-0.0231958,-0.0817623,-0.0585664,0.0605976,0.0204212,-0.0810188
7.94,-0.0153804,-0.0781968,-0.0628164,0.0540268,0.0273872,-0.0814139
7.945,-0.000783469,-0.0760028,-0.0752193,0.0443326,0.0429756,-0.0873081
7.95,0.0133962,-0.0743269,-0.0877231,0.0351783,0.0583813,-0.0935596
7.955,0.0197114,-0.0721494,-0.0918607,0.0302751,0.0644162,-0.0946912
7.96,0.0167783,-0.0689101,-0.0856884,0.0300983,0.0591592,-0.0892574
7.965,0.00932386,-0.0636824,-0.0730062,0.0313839,0.0475333,-0.0789171
7.97,0.00334162,-0.0557285,-0.0590701,0.0302455,0.0360334,-0.0662789
7.975,0.00321801,-0.0456816,-0.0488996,0.0245163,0.0300901,-0.0546064
7.98,0.00932614,-0.035069,-0.0443952,0.0148627,0.031016,-0.0458786
7.985,0.0174685,-0.024801,-0.0422695,0.0042334,0.0344897,-0.0387231
7.99,0.0242187,-0.0160084,-0.0402272,-0.00474022,0.0372078,-0.0324676
7.995,0.030012,-0.00990025,-0.0399123,-0.0116115,0.0403708,-0.0287593
8,0.0365387,-0.00607398,-0.0426127,-0.0175888,0.0456981,-0.0281093
8.005,0.0449201,-0.00390283,-0.0488229,-0.0236813,0.0541225,-0.0304412
8.01,0.0555457,-0.00360356,-0.0591493,-0.0299888,0.0662192,-0.0362304
8.015,0.0671097,-0.00404141,-0.0711511,-0.0364125,0.0798248,-0.0434124
8.02,0.077112,-0.00360755,-0.0807196,-0.0424378,0.0911241,-0.0486863
8.025,0.0837701,-0.00197017,-0.0857403,-0.0472272,0.0978668,-0.0506396
8.03,0.0846878,0.000655317,-0.0840325,-0.0492729,0.0974107,-0.0481378
8.035,0.0790654,0.00375962,-0.0753058,-0.0478191,0.0891263,-0.0413072
8.04,0.0692041,0.00540208,-0.063802,-0.0430739,0.0767911,-0.0337172
8.045,0.0601035,0.00470463,-0.0553988,-0.0374169,0.0666853,-0.0292683
8.05,0.053558,0.00320181,-0.0503562,-0.0327703,0.0599948,-0.0272246
8.055,0.0454543,0.00181509,-0.0436392,-0.027291,0.0514381,-0.0241471
8.06,0.0336133,0.000453431,-0.0331599,-0.0196684,0.0385515,-0.0188831
8.065,0.0207562,-0.000932236,-0.0216884,-0.0114453,0.0245054,-0.01306
8.07,0.0110029,-0.0035644,-0.0145673,-0.00429461,0.0147629,-0.0104683
8.075,0.00357458,-0.00879825,-0.0123728,0.00301589,0.00920724,-0.0122231
8.08,-0.00743705,-0.0160932,-0.00865618,0.0135852,0.000703864,-0.0142891
8.085,-0.0221294,-0.0238752,-0.00174581,0.0265608,-0.0117685,-0.0147923
8.09,-0.0341536,-0.0320255,0.00212819,0.0382085,-0.0209473,-0.0172612
8.095,-0.0408473,-0.0412441,-0.000396784,0.0473955,-0.0233541,-0.0240414
8.1,-0.0446047,-0.0505495,-0.00594483,0.0549373,-0.0223203,-0.032617
8.105,-0.0485883,-0.0580465,-0.0094582,0.0615656,-0.0225918,-0.0389738
8.11,-0.0529088,-0.0627167,-0.00980796,0.0667564,-0.0248842,-0.0418721
8.115,-0.0548268,-0.0655177,-0.0106909,0.0694809,-0.0254818,-0.043999
8.12,-0.0545393,-0.0673239,-0.0127845,0.0703577,-0.0241071,-0.0462506
8.125,-0.0555047,-0.069182,-0.0136774,0.0719879,-0.024149,-0.0478389
8.13,-0.0593256,-0.0714567,-0.0121311,0.0755071,-0.0272477,-0.0482594
8.135,-0.064189,-0.0732758,-0.00908674,0.0793653,-0.0318133,-0.047552
8.14,-0.0673122,-0.0728119,-0.00549967,0.0809007,-0.0356875,-0.0452132
8.145,-0.0677554,-0.0699924,-0.00223694,0.0795287,-0.0378271,-0.0417016
8.15,-0.0660178,-0.0670883,-0.00107045,0.0768488,-0.0374974,-0.0393515
8.155,-0.0619111,-0.0650064,-0.00309531,0.0732758,-0.0339573,-0.0393185
8.16,-0.0546877,-0.0642308,-0.00954312,0.0686576,-0.0260642,-0.0425934
8.165,-0.0458377,-0.0646829,-0.0188452,0.063809,-0.0155841,-0.048225
8.17,-0.0409323,-0.0648016,-0.0238693,0.0610454,-0.00985128,-0.0511941
8.175,-0.0419122,-0.0632234,-0.0213112,0.0607,-0.0118939,-0.0488061
8.18,-0.0459265,-0.0595966,-0.0136701,0.0609237,-0.0186232,-0.0423005
8.185,-0.0494619,-0.0542412,-0.00477934,0.059873,-0.0257975,-0.0340755
8.19,-0.0500248,-0.0496644,0.000360318,0.0575556,-0.0290898,-0.0284657
8.195,-0.0468776,-0.0481928,-0.00131522,0.0548889,-0.0263054,-0.0285835
8.2,-0.0430026,-0.0489112,-0.00590858,0.0530665,-0.0214163,-0.0316502
8.205,-0.0423853,-0.0495644,-0.00717916,0.0530872,-0.0203262,-0.0327609
8.21,-0.0436358,-0.0482097,-0.00457389,0.053027,-0.0225524,-0.0304746
8.215,-0.045641,-0.0458633,-0.000222221,0.05283,-0.0262226,-0.0266075
8.22,-0.0501238,-0.0447269,0.00539685,0.0547621,-0.0320548,-0.0227072
8.225,-0.0548759,-0.0456075,0.00926844,0.0580141,-0.0370337,-0.0209803
8.23,-0.054462,-0.0483982,0.00606375,0.0593863,-0.0349445,-0.0244418
8.235,-0.0480407,-0.0519293,-0.00388857,0.0577177,-0.0254912,-0.0322264
8.24,-0.0423456,-0.0557223,-0.0133766,0.0566195,-0.0167252,-0.0398943
8.245,-0.0410678,-0.058761,-0.0176931,0.0576362,-0.0134954,-0.0441408
8.25,-0.0435122,-0.0594956,-0.0159835,0.0594715,-0.0158937,-0.0435778
8.255,-0.0490349,-0.0587185,-0.00968364,0.0622114,-0.0227194,-0.039492
8.26,-0.0550295,-0.0593838,-0.00435436,0.0660565,-0.0292573,-0.0367992
8.265,-0.0558377,-0.062522,-0.0066843,0.068335,-0.0283787,-0.0399563
8.27,-0.0502453,-0.0671138,-0.0168685,0.0677573,-0.0192701,-0.0484872
8.275,-0.0433443,-0.0708159,-0.0274717,0.0659104,-0.00916405,-0.0567463
8.28,-0.040991,-0.0720342,-0.0310432,0.0652551,-0.00574334,-0.0595118
8.285,-0.0449437,-0.0714843,-0.0265406,0.0672197,-0.0106251,-0.0565946
8.29,-0.0519393,-0.0709422,-0.0190029,0.0709456,-0.0190159,-0.0519297
8.295,-0.0583147,-0.0718148,-0.0135001,0.0751302,-0.0258737,-0.0492565
8.3,-0.0626959,-0.0736525,-0.0109567,0.0787208,-0.0298716,-0.0488491
8.305,-0.0642906,-0.0754556,-0.0111651,0.0806825,-0.030672,-0.0500105
8.31,-0.0634947,-0.0767289,-0.0132341,0.0809581,-0.029018,-0.0519401
8.315,-0.0625245,-0.0775394,-0.0150149,0.0808659,-0.0274297,-0.0534363
8.32,-0.063323,-0.0784083,-0.0150853,0.0818286,-0.02785,-0.0539786
8.325,-0.0632339,-0.0790271,-0.0157932,0.0821344,-0.0273899,-0.0547445
8.33,-0.0564345,-0.0802444,-0.0238098,0.0789116,-0.0188359,-0.0600757
8.335,-0.0439796,-0.0829918,-0.0390123,0.0733069,-0.00286787,-0.0704391
8.34,-0.0344583,-0.0858263,-0.051368,0.0694463,0.00976284,-0.0792091
8.345,-0.0314387,-0.0877237,-0.056285,0.0687984,0.014345,-0.0831434
8.35,-0.0321338,-0.089401,-0.0572672,0.0701681,0.0145107,-0.0846788
8.355,-0.0350139,-0.0910605,-0.0560465,0.0727891,0.0121432,-0.0849322
8.36,-0.0399902,-0.0923712,-0.052381,0.0764189,0.0071538,-0.0835727
8.365,-0.0451286,-0.0927024,-0.0475739,0.0795767,0.00141179,-0.0809885
8.37,-0.0481525,-0.0924377,-0.0442851,0.0811698,-0.00223284,-0.0789369
8.375,-0.0496027,-0.0916398,-0.0420371,0.0815464,-0.00436801,-0.0771784
8.38,-0.0537313,-0.0903532,-0.036622,0.0831872,-0.00987808,-0.0733091
8.385,-0.0621534,-0.0894466,-0.0272932,0.0875263,-0.0201265,-0.0673997
8.39,-0.0691245,-0.0890082,-0.0198836,0.0912979,-0.0284292,-0.0628687
8.395,-0.0689966,-0.0875374,-0.0185408,0.0903749,-0.0291306,-0.0612442
8.4,-0.0641855,-0.0858338,-0.0216483,0.0866136,-0.0245588,-0.0620548
8.405,-0.0599121,-0.085785,-0.0258729,0.0841182,-0.0196525,-0.0644657
8.41,-0.0583591,-0.0875286,-0.0291695,0.0842283,-0.0168526,-0.0673757
8.415,-0.0592747,-0.0897234,-0.0304487,0.086024,-0.0166427,-0.0693813
8.42,-0.0606121,-0.0911205,-0.0305084,0.0876028,-0.0173804,-0.0702224
8.425,-0.0587872,-0.0919512,-0.033164,0.0870288,-0.0147935,-0.0722352
8.43,-0.0527017,-0.0933966,-0.0406949,0.0843499,-0.00693212,-0.0774177
8.435,-0.0467034,-0.0957574,-0.0490541,0.0822497,0.00135718,-0.0836069
8.44,-0.0448919,-0.0978093,-0.0529174,0.0823885,0.0046335,-0.087022
8.445,-0.0462831,-0.0987194,-0.0524363,0.0837172,0.00355254,-0.0872697
8.45,-0.0466878,-0.09851,-0.0518222,0.08383,0.00296435,-0.0867943
8.455,-0.0440661,-0.0967347,-0.0526686,0.0812913,0.00496666,-0.086258
8.46,-0.0383281,-0.0923309,-0.0540028,0.075436,0.00904982,-0.0844858
8.465,-0.0300622,-0.084674,-0.0546118,0.066243,0.0141737,-0.0804167
8.47,-0.0247933,-0.0743096,-0.0495162,0.057217,0.0142738,-0.0714908
8.475,-0.0284641,-0.0607037,-0.0322396,0.0514811,0.00217978,-0.0536608
8.48,-0.0414282,-0.0442606,-0.00283233,0.0494724,-0.0222834,-0.0271891
8.485,-0.0588977,-0.0270472,0.0318504,0.0496203,-0.0523934,0.00277312
8.49,-0.0735212,-0.0102809,0.0632403,0.0483832,-0.0789593,0.0305761
8.495,-0.0787546,0.00539967,0.0841543,0.0423515,-0.0940554,0.051704
8.5,-0.0725709,0.018897,0.0914679,0.0309886,-0.0947078,0.0637192
8.505,-0.0599226,0.0310367,0.0909592,0.0166773,-0.0871116,0.0704343
8.51,-0.0468486,0.0435874,0.090436,0.00188281,-0.0792613,0.0773784
8.515,-0.0358666,0.0554706,0.0913372,-0.0113184,-0.0734411,0.0847595
8.52,-0.0270216,0.0652224,0.092244,-0.0220552,-0.068858,0.0909133
8.525,-0.0203886,0.0709898,0.0913783,-0.0292146,-0.0645286,0.0937432
8.53,-0.0168415,0.0699314,0.0867729,-0.0306515,-0.0598218,0.0904733
8.535,-0.0148981,0.0581652,0.0730633,-0.0249802,-0.0507845,0.0757647
8.54,-0.0112633,0.0341749,0.0454382,-0.013228,-0.0327366,0.0459647
8.545,-0.0068491,0.00255623,0.00940533,0.00247849,-0.00938449,0.006906
8.55,-0.00608575,-0.0291779,-0.0230921,0.0203595,0.00981863,-0.0301781
8.555,-0.0131474,-0.0560633,-0.0429159,0.0399588,0.0171869,-0.0571457
8.56,-0.0280971,-0.0754809,-0.0473838,0.0598008,0.0111352,-0.070936
8.565,-0.0459084,-0.0879396,-0.0420313,0.0772771,-0.00223844,-0.0750387
8.57,-0.0601642,-0.0959831,-0.0358189,0.0901517,-0.0140557,-0.0760959
8.575,-0.0662738,-0.10166,-0.0353859,0.0969564,-0.0178332,-0.0791233
8.58,-0.0624144,-0.106188,-0.0437731,0.0973423,-0.0107625,-0.0865798
8.585,-0.0524161,-0.110875,-0.0584588,0.094276,0.00348879,-0.0977648
8.59,-0.0436375,-0.115945,-0.0723071,0.0921347,0.0165524,-0.108687
8.595,-0.0375226,-0.120239,-0.0827165,0.0910837,0.0260927,-0.117176
8.6,-0.027553,-0.119716,-0.0921627,0.0850256,0.0373024,-0.122328
8.605,-0.00597669,-0.102045,-0.0960685,0.0623664,0.0520145,-0.114381
8.61,0.0247587,-0.0479477,-0.0727065,0.0133882,0.0562716,-0.0696597
8.615,0.0509865,0.0607088,0.00972237,-0.0644873,0.0238238,0.0406635
8.62,0.0610694,0.232663,0.171594,-0.169587,-0.0638113,0.233398
8.625,0.0520519,0.459867,0.407816,-0.295557,-0.2054,0.500957
8.63,0.0200362,0.70093,0.680893,-0.41625,-0.381546,0.797795
8.635,-0.0409232,0.88101,0.921933,-0.485024,-0.555905,1.04093
8.64,-0.125268,0.932741,1.05801,-0.466194,-0.683165,1.14936
8.645,-0.213585,0.843508,1.05709,-0.363686,-0.733627,1.09731
8.65,-0.281446,0.661993,0.943439,-0.219709,-0.707188,0.926896
8.655,-0.310181,0.458732,0.768913,-0.0857656,-0.623015,0.708781
8.66,-0.295219,0.282607,0.577826,0.00728124,-0.504053,0.496772
8.665,-0.247984,0.151421,0.399405,0.055751,-0.37377,0.318019
8.67,-0.18645,0.0621236,0.248574,0.0717799,-0.251161,0.179381
8.675,-0.124322,0.00335019,0.127672,0.0698429,-0.145489,0.0756456
8.68,-0.0717513,-0.0353236,0.0364277,0.0618197,-0.0624572,0.000637487
8.685,-0.0360937,-0.0619869,-0.0258932,0.0566269,-0.00588931,-0.0507376
8.69,-0.0186723,-0.0817117,-0.0630394,0.0579567,0.0256153,-0.083572
8.695,-0.0136016,-0.0963574,-0.0827558,0.0634848,0.0399262,-0.103411
8.7,-0.0109669,-0.10659,-0.0956235,0.0678717,0.0488765,-0.116748
8.705,-0.00716945,-0.112633,-0.105463,0.0691677,0.0567498,-0.125918
8.71,-0.00568308,-0.114373,-0.10869,0.0693145,0.0594711,-0.128786
8.715,-0.00836822,-0.114526,-0.106158,0.0709529,0.0564587,-0.127412
8.72,-0.0134008,-0.116752,-0.103351,0.0751438,0.0519329,-0.127077
8.725,-0.0160827,-0.121939,-0.105857,0.0796871,0.0518311,-0.131518
8.73,-0.0129687,-0.128157,-0.115189,0.0814791,0.0590166,-0.140496
8.735,-0.00585832,-0.129898,-0.12404,0.0783789,0.068232,-0.146611
