Time,Lead I,Lead II,Lead III,aVR,aVL,aVF
0,0.0411976,-0.0495921,-0.0907898,0.00484657,0.0762029,-0.0810495
0.005,0.0431985,-0.0499025,-0.093101,0.00387056,0.0786925,-0.0825631
0.01,0.0455646,-0.0475775,-0.0931421,0.00116213,0.0800823,-0.0812444
0.015,0.0483875,-0.0426448,-0.0910323,-0.00331557,0.080494,-0.0771784
0.02,0.0514465,-0.0367467,-0.0881932,-0.00848696,0.080621,-0.072134
0.025,0.0543754,-0.0298616,-0.0842369,-0.014153,0.0800278,-0.0658748
0.03,0.0570512,-0.0220109,-0.0790621,-0.0202305,0.078585,-0.0583545
0.035,0.059644,-0.0151524,-0.0747964,-0.0256872,0.0776192,-0.051932
0.04,0.0622839,-0.0104955,-0.0727793,-0.0299,0.0779787,-0.0480787
0.045,0.0651096,-0.00767982,-0.0727894,-0.0331571,0.079616,-0.0464589
0.05,0.0685303,-0.00490692,-0.0734372,-0.0367329,0.0819649,-0.045232
0.055,0.0727289,0.00108182,-0.0716471,-0.0426146,0.0833555,-0.0407409
0.06,0.0775889,0.0105445,-0.0670444,-0.0508839,0.083504,-0.0326202
0.065,0.0829361,0.0203765,-0.0625596,-0.0596475,0.084002,-0.0243544
0.07,0.0887335,0.0282213,-0.0605122,-0.0675239,0.086167,-0.0186431
0.075,0.094865,0.0348633,-0.0600016,-0.0748986,0.0894122,-0.0145136
0.08,0.101246,0.0420817,-0.0591647,-0.0827505,0.0926133,-0.00986287
0.085,0.108045,0.0499585,-0.0580866,-0.0912234,0.0959162,-0.00469277
0.09,0.115173,0.0579952,-0.0571777,-0.0999786,0.0995066,0.000472027
0.095,0.122519,0.0660774,-0.0564421,-0.108886,0.103323,0.00556296
0.1,0.129891,0.0732732,-0.0566174,-0.117297,0.10768,0.00961626
0.105,0.136524,0.0783876,-0.0581368,-0.12408,0.112388,0.0116918
0.11,0.141711,0.0814577,-0.0602534,-0.128847,0.116604,0.0122423
0.115,0.14553,0.0838484,-0.0616815,-0.132431,0.119633,0.0127981
0.12,0.148257,0.0859262,-0.0623312,-0.135206,0.121583,0.0136226
0.125,0.149859,0.0874899,-0.0623691,-0.137033,0.12253,0.0145035
0.13,0.150004,0.0886771,-0.0613269,-0.137803,0.122012,0.0157906
0.135,0.1485,0.089857,-0.0586427,-0.137615,0.119594,0.0180216
0.14,0.145213,0.0911937,-0.0540197,-0.13649,0.115027,0.0214624
0.145,0.139997,0.0925537,-0.047443,-0.134263,0.108218,0.0260446
0.15,0.132509,0.0926642,-0.0398453,-0.130004,0.099509,0.030495
0.155,0.122919,0.0920099,-0.0309087,-0.124089,0.0888122,0.0352767
0.16,0.111663,0.0909191,-0.0207435,-0.116961,0.0764447,0.0405159
0.165,0.0990325,0.0877322,-0.0113004,-0.107829,0.0637007,0.0441279
0.17,0.0854689,0.081048,-0.00442091,-0.0961385,0.0518979,0.0442406
0.175,0.0717834,0.0712921,-0.000491314,-0.0826046,0.0417278,0.0408768
0.18,0.0590843,0.0597129,0.000628643,-0.0685876,0.0337494,0.0348382
0.185,0.0480783,0.0474591,-0.000619173,-0.0551585,0.0281155,0.027043
0.19,0.0388659,0.0359453,-0.00292054,-0.0431923,0.0241254,0.0190669
0.195,0.0313049,0.0257582,-0.00554675,-0.0329454,0.0212763,0.0116691
0.2,0.0250933,0.0172134,-0.00787998,-0.0244258,0.0190371,0.00538863
0.205,0.0202077,0.00951122,-0.0106965,-0.0171582,0.0178426,-0.000684333
0.21,0.0165623,0.00180601,-0.0147562,-0.0106049,0.0180817,-0.00747682
0.215,0.0140876,-0.00655394,-0.0206415,-0.00434956,0.0200509,-0.0157013
0.22,0.012436,-0.0134045,-0.0258405,0.000559134,0.022099,-0.0226581
0.225,0.0112191,-0.0151405,-0.0263595,0.00226401,0.021696,-0.02396
0.23,0.01023,-0.0118366,-0.0220666,0.000927548,0.0186465,-0.019574
0.235,0.0096247,-0.00744785,-0.0170726,-0.0012568,0.0154137,-0.0141569
0.24,0.00938101,-0.00527698,-0.014658,-0.00236946,0.0138789,-0.0115095
0.245,0.00917031,-0.00552761,-0.0146979,-0.00210312,0.0137803,-0.0116772
0.25,0.00889678,-0.00736811,-0.0162649,-0.000882575,0.0145271,-0.0136445
0.255,0.00859134,-0.00987085,-0.0184622,0.000738723,0.0156194,-0.0163581
0.26,0.00826899,-0.0108111,-0.0190801,0.00146769,0.01579,-0.0172577
0.265,0.00792277,-0.00924764,-0.0171704,0.000764915,0.0144875,-0.0152525
0.27,0.00784163,-0.00587273,-0.0137144,-0.00113675,0.0124454,-0.0113086
0.275,0.00820607,-0.00159848,-0.00980456,-0.00381489,0.0103984,-0.00658355
0.28,0.00891105,0.00240544,-0.00650561,-0.00653358,0.00890081,-0.00236724
0.285,0.00978868,0.00566109,-0.0041276,-0.00891993,0.00803457,0.000885359
0.29,0.0104003,0.00845771,-0.00194257,-0.0108877,0.00712615,0.00376151
0.295,0.0105182,0.0103468,-0.000171385,-0.0120464,0.00617163,0.00587479
0.3,0.0103224,0.0105374,0.000215009,-0.0120434,0.00583551,0.00620792
0.305,0.0102048,0.00962479,-0.000580022,-0.0114486,0.00622662,0.005222
0.31,0.0104626,0.00716862,-0.00329395,-0.0101794,0.00794232,0.00223704
0.315,0.0111065,0.00329588,-0.00781062,-0.00831522,0.0109218,-0.00260659
0.32,0.0121201,-0.000391159,-0.0125112,-0.00677169,0.0142209,-0.0074492
0.325,0.0132928,-0.00231521,-0.015608,-0.00633789,0.0166858,-0.0103479
0.33,0.014089,-0.00310324,-0.0171923,-0.00634265,0.0180603,-0.0117176
0.335,0.0140167,-0.00422239,-0.018239,-0.00565472,0.0186228,-0.0129681
0.34,0.0132108,-0.00621748,-0.0194283,-0.00403759,0.0188442,-0.0148066
0.345,0.0122729,-0.00929592,-0.0215688,-0.00171878,0.0195386,-0.0178198
0.35,0.0114062,-0.0122891,-0.0236953,0.000509738,0.0202658,-0.0207756
0.355,0.0103297,-0.0131794,-0.023509,0.00164528,0.0195368,-0.021182
0.36,0.00908294,-0.0121761,-0.021259,0.00178581,0.0175179,-0.0193037
0.365,0.00797221,-0.0107766,-0.0187489,0.00161914,0.0154274,-0.0170466
0.37,0.00711493,-0.0102227,-0.0173376,0.00179425,0.0141177,-0.0159119
0.375,0.0063485,-0.010906,-0.0172545,0.00263125,0.0136272,-0.0162584
0.38,0.00540041,-0.0127752,-0.0181756,0.00425781,0.0136116,-0.0178694
0.385,0.00434073,-0.0159516,-0.0202923,0.00670352,0.0142219,-0.0209254
0.39,0.00345221,-0.0196026,-0.0230548,0.00932444,0.0153038,-0.0246283
0.395,0.00295896,-0.0224604,-0.0254194,0.0112592,0.0163842,-0.0276434
0.4,0.0028098,-0.0250695,-0.0278793,0.0128516,0.0177183,-0.03057
0.405,0.0026461,-0.0276588,-0.0303049,0.0144411,0.0190243,-0.0334654
0.41,0.00242491,-0.0298787,-0.0323037,0.0158505,0.0200505,-0.035901
0.415,0.00248472,-0.0320723,-0.034557,0.0170824,0.021386,-0.0384684
0.42,0.00300425,-0.0348312,-0.0378355,0.0183753,0.0235788,-0.0419541
0.425,0.00383909,-0.0383611,-0.0422002,0.0199313,0.0265808,-0.046512
0.43,0.00478139,-0.0415277,-0.0463091,0.0212155,0.0294971,-0.0507126
0.435,0.00548499,-0.0433394,-0.0488244,0.0218552,0.0313555,-0.0532107
0.44,0.00591058,-0.0436611,-0.0495717,0.0217953,0.0320327,-0.053828
0.445,0.0065139,-0.0427712,-0.0492851,0.0209332,0.0322156,-0.0531487
0.45,0.00747258,-0.041215,-0.0486876,0.0194812,0.0324241,-0.0519053
0.455,0.00842889,-0.038904,-0.0473328,0.0175948,0.032194,-0.0497888
0.46,0.00863424,-0.0371012,-0.0457355,0.0164354,0.0313904,-0.0478258
0.465,0.0080186,-0.0369246,-0.0449432,0.0166889,0.0305775,-0.0472664
0.47,0.00724337,-0.037227,-0.0444703,0.017311,0.0298569,-0.0471679
0.475,0.00655263,-0.0375304,-0.044083,0.017885,0.0292345,-0.0471195
0.48,0.00559126,-0.0382794,-0.0438707,0.0188725,0.0285569,-0.0474294
0.485,0.00417415,-0.0390604,-0.0432345,0.0201415,0.0273714,-0.0475129
0.49,0.00265714,-0.0391301,-0.0417872,0.0210577,0.02566,-0.0467176
0.495,0.00160329,-0.037627,-0.0392303,0.0207983,0.0235753,-0.0443736
0.5,0.00116446,-0.034995,-0.0361595,0.0195321,0.021549,-0.0410811
0.505,0.00128756,-0.0327669,-0.0340544,0.0181746,0.0204047,-0.0385793
0.51,0.00180147,-0.0324481,-0.0342496,0.0176938,0.0208141,-0.0385079
0.515,0.00242182,-0.0340698,-0.0364916,0.018272,0.0224667,-0.0407386
0.52,0.00285284,-0.0369644,-0.0398172,0.0196943,0.0246356,-0.0443298
0.525,0.00311108,-0.0393288,-0.0424398,0.0209103,0.0262988,-0.0472091
0.53,0.00325489,-0.0400043,-0.0432592,0.0212173,0.0268549,-0.0480722
0.535,0.00314228,-0.0393411,-0.0424834,0.0208994,0.026342,-0.0472414
0.54,0.00279486,-0.0377503,-0.0405451,0.0201815,0.0250223,-0.0452038
0.545,0.00233758,-0.035602,-0.0379396,0.0192052,0.023254,-0.0424592
0.55,0.00173439,-0.0342447,-0.0359791,0.0187698,0.0217739,-0.0405437
0.555,0.000984903,-0.0344517,-0.0354366,0.019322,0.0210279,-0.04035
0.56,0.000436681,-0.0347636,-0.0352003,0.0198186,0.020575,-0.0403937
0.565,0.000403348,-0.0332855,-0.0336889,0.0189845,0.0196831,-0.0386677
0.57,0.00106177,-0.0282687,-0.0293305,0.0157079,0.017547,-0.0332549
0.575,0.00234542,-0.0191796,-0.021525,0.00971919,0.0137816,-0.0235008
0.58,0.003643,-0.0070575,-0.0107005,0.00197136,0.00828123,-0.0102526
0.585,0.00431906,0.00738087,0.00306181,-0.00675496,0.000725873,0.00602908
0.59,0.00426879,0.0228888,0.01862,-0.0156794,-0.00828569,0.0239651
0.595,0.00361455,0.03753,0.0339155,-0.0237548,-0.0174942,0.0412491
0.6,0.0029899,0.0508766,0.0478867,-0.0310998,-0.0259211,0.0570209
0.605,0.00353935,0.0649247,0.0613853,-0.0395277,-0.0333974,0.0729251
0.61,0.00576426,0.080128,0.0743637,-0.0495899,-0.0396059,0.0891958
0.615,0.00884311,0.0953029,0.0864597,-0.0601287,-0.044812,0.104941
0.62,0.0112592,0.108796,0.097537,-0.069314,-0.0498124,0.119126
0.625,0.0123527,0.119749,0.107396,-0.0762689,-0.0548734,0.131142
0.63,0.0132112,0.128374,0.115163,-0.0817441,-0.0588616,0.140606
0.635,0.0153262,0.134506,0.11918,-0.0865055,-0.0599598,0.146465
0.64,0.0191098,0.134083,0.114974,-0.0884461,-0.055347,0.143793
0.645,0.0234513,0.12321,0.0997592,-0.0846751,-0.0440564,0.128732
0.65,0.0263803,0.102401,0.0760205,-0.0743518,-0.0286598,0.103012
0.655,0.0267505,0.074612,0.0478616,-0.0585217,-0.0121885,0.0707101
0.66,0.0246855,0.0438473,0.0191617,-0.0395674,0.00318917,0.0363783
0.665,0.021111,0.0152089,-0.00590202,-0.0209693,0.0155959,0.00537335
0.67,0.0171817,-0.00703815,-0.0242198,-0.00585638,0.0239032,-0.0180468
0.675,0.0134678,-0.0226729,-0.0361407,0.00531456,0.0286415,-0.033956
0.68,0.00992807,-0.0335649,-0.0434929,0.0136467,0.0308426,-0.0444893
0.685,0.00650081,-0.041826,-0.0483268,0.020395,0.0316547,-0.0520497
0.69,0.00347302,-0.0478989,-0.0513719,0.0256493,0.0316647,-0.057314
0.695,0.00119828,-0.0518117,-0.05301,0.0292217,0.0312971,-0.0605188
0.7,3.05E-05,-0.0556019,-0.0556323,0.0320842,0.0321369,-0.0642211
0.705,0.00195304,-0.0599039,-0.061857,0.033458,0.0368407,-0.0702987
0.71,0.0106708,-0.0573837,-0.0680545,0.0269697,0.045452,-0.0724217
0.715,0.029636,-0.0363613,-0.0659973,0.00388283,0.0552139,-0.0590967
0.72,0.0576043,0.0165627,-0.0410417,-0.0428203,0.0569533,-0.0141329
0.725,0.0846274,0.116236,0.0316091,-0.115969,0.0306101,0.0853586
0.73,0.0969152,0.274083,0.177168,-0.214196,-0.0463338,0.26053
0.735,0.0860371,0.48677,0.400733,-0.33071,-0.18169,0.5124
0.74,0.0495123,0.718585,0.669072,-0.443461,-0.357703,0.801164
0.745,-0.0101884,0.897175,0.907363,-0.512101,-0.529748,1.04185
0.75,-0.0841022,0.953029,1.03713,-0.501675,-0.647344,1.14902
0.755,-0.157056,0.869185,1.02624,-0.411148,-0.683176,1.09432
0.76,-0.210839,0.692734,0.903573,-0.278222,-0.643406,0.921628
0.765,-0.232019,0.49657,0.728588,-0.152738,-0.554607,0.707345
0.77,-0.218671,0.330951,0.549621,-0.0648251,-0.443573,0.508398
0.775,-0.179943,0.210826,0.390769,-0.0178299,-0.3295,0.34733
0.78,-0.129478,0.130186,0.259664,-0.000409013,-0.224671,0.22508
0.785,-0.0796111,0.0772562,0.156867,0.00135958,-0.136531,0.135171
0.79,-0.0383286,0.0427044,0.0810331,-0.00252639,-0.0689135,0.0714398
0.795,-0.00868281,0.0190459,0.0277287,-0.00598311,-0.0210222,0.0270053
0.8,0.0104683,0.00219157,-0.00827671,-0.00730917,0.0108224,-0.00351326
0.805,0.0222157,-0.0102189,-0.0324346,-0.00692634,0.0315523,-0.024626
0.81,0.0294715,-0.0197394,-0.0492109,-0.00561883,0.0454273,-0.0398085
0.815,0.034169,-0.0270784,-0.0612475,-0.00409376,0.0550887,-0.0509949
0.82,0.0373594,-0.0322443,-0.0696037,-0.00295316,0.0617551,-0.0588019
0.825,0.0397659,-0.0347518,-0.0745177,-0.00289489,0.0659816,-0.0630868
0.83,0.0420338,-0.0339023,-0.0759361,-0.00469473,0.0681099,-0.0634152
0.835,0.0442408,-0.0303008,-0.0745417,-0.00804827,0.0685791,-0.0605308
0.84,0.0460787,-0.0247802,-0.0708589,-0.0122967,0.0675139,-0.0552173
0.845,0.0476594,-0.0180404,-0.0656998,-0.0171005,0.065448,-0.0483474
0.85,0.0493409,-0.011553,-0.0608939,-0.0218168,0.063644,-0.0418272
0.855,0.051369,-0.0068,-0.058169,-0.0257319,0.0632417,-0.0375098
0.86,0.0538312,-0.00383374,-0.057665,-0.028866,0.0643723,-0.0355063
0.865,0.0565245,-0.00122954,-0.057754,-0.0319245,0.0659787,-0.0340541
0.87,0.0590705,0.00155328,-0.0575172,-0.0350011,0.0673119,-0.0323108
0.875,0.0612609,0.00320886,-0.0580521,-0.0372216,0.0688853,-0.0316637
0.88,0.0631427,0.00393681,-0.0592059,-0.0387284,0.070638,-0.0319096
0.885,0.0649739,0.00619804,-0.0587759,-0.0410911,0.0714469,-0.0303558
0.89,0.0670554,0.00952208,-0.0575333,-0.044212,0.0719313,-0.0277193
0.895,0.0697898,0.0139515,-0.0558383,-0.048348,0.0725314,-0.0241833
0.9,0.0733692,0.0201831,-0.053186,-0.0540124,0.0730666,-0.0190542
0.905,0.0776448,0.0267606,-0.0508842,-0.0602784,0.0742062,-0.0139278
0.91,0.0825887,0.0318113,-0.0507774,-0.0660489,0.0769989,-0.0109501
0.915,0.0886796,0.0371966,-0.051483,-0.0726747,0.0809229,-0.00824827
0.92,0.0960353,0.0449663,-0.051069,-0.0814073,0.0849307,-0.00352336
0.925,0.104118,0.0548963,-0.049222,-0.091807,0.088531,0.00327605
0.93,0.112328,0.0647619,-0.0475662,-0.102243,0.092315,0.00992791
0.935,0.120361,0.0724858,-0.0478755,-0.11134,0.0971316,0.0142088
0.94,0.128073,0.0772508,-0.0508217,-0.118543,0.103285,0.0152588
0.945,0.135362,0.0802782,-0.0550834,-0.1245,0.109953,0.0145462
0.95,0.14214,0.0831334,-0.0590063,-0.130061,0.116132,0.0139298
0.955,0.148175,0.0866623,-0.0615132,-0.135584,0.121064,0.0145198
0.96,0.15302,0.0902659,-0.0627544,-0.140461,0.124578,0.0158838
0.965,0.156339,0.0927399,-0.0635989,-0.143806,0.126981,0.0168246
0.97,0.158217,0.0946329,-0.063584,-0.145983,0.128057,0.0179261
0.975,0.158773,0.0964299,-0.0623429,-0.147341,0.127661,0.0196801
0.98,0.158165,0.0981238,-0.0600414,-0.147968,0.125982,0.0219868
0.985,0.156368,0.100152,-0.0562166,-0.148102,0.122736,0.025366
0.99,0.15292,0.101967,-0.0509538,-0.147159,0.117707,0.0294523
0.995,0.147387,0.101911,-0.0454764,-0.143932,0.11135,0.0325825
1,0.139777,0.0999557,-0.0398208,-0.138409,0.103691,0.0347189
1.005,0.130266,0.097468,-0.0327985,-0.131482,0.0941456,0.0373369
1.01,0.118899,0.0941022,-0.0247964,-0.122976,0.0829623,0.0400137
1.015,0.105886,0.087979,-0.017907,-0.111928,0.0714719,0.0404561
1.02,0.0919702,0.0797512,-0.012219,-0.0991433,0.0601536,0.0389897
1.025,0.077985,0.0701938,-0.00779118,-0.085551,0.0495229,0.0360281
1.03,0.0644565,0.0585704,-0.00588607,-0.0710296,0.0406123,0.0304173
1.035,0.0519931,0.0462096,-0.00578349,-0.0566974,0.0333573,0.02334
1.04,0.0413026,0.0352758,-0.00602682,-0.0442125,0.0273256,0.0168869
1.045,0.0327295,0.0260766,-0.00665288,-0.0339517,0.0227374,0.0112143
1.05,0.0262679,0.0167633,-0.00950463,-0.0248441,0.0206533,0.0041908
1.055,0.0215919,0.00625575,-0.0153362,-0.0160779,0.0213204,-0.00524258
1.06,0.0183217,-0.00310033,-0.021422,-0.00878806,0.022946,-0.014158
1.065,0.0160822,-0.00930829,-0.0253905,-0.00391089,0.0239442,-0.0200333
1.07,0.0143649,-0.0122702,-0.0266351,-0.00120936,0.0236714,-0.022462
1.075,0.0128932,-0.0130628,-0.025956,9.79E-05,0.0224296,-0.0225275
1.08,0.0117535,-0.0123631,-0.0241166,0.000351948,0.0207096,-0.0210615
1.085,0.0109574,-0.0103905,-0.0213479,-0.000327315,0.0186515,-0.0183242
1.09,0.010389,-0.00755877,-0.0179478,-0.00163405,0.0163603,-0.0147262
1.095,0.00998963,-0.00417074,-0.0141604,-0.00335953,0.013943,-0.0105835
1.1,0.00972431,-0.000753969,-0.0104783,-0.00517903,0.011664,-0.00648494
1.105,0.00968153,0.00165251,-0.00802902,-0.0065437,0.0102252,-0.00368148
1.11,0.0100307,0.00282986,-0.00720084,-0.00742504,0.00994863,-0.00252358
1.115,0.0108082,0.00369351,-0.00711473,-0.00837258,0.0103478,-0.00197524
1.12,0.0121104,0.00558793,-0.00652247,-0.0102181,0.0107577,-0.000539558
1.125,0.0138485,0.00944682,-0.00440172,-0.0134496,0.0105368,0.00291279
1.13,0.0156534,0.0140919,-0.00156143,-0.0171735,0.00993897,0.00723449
1.135,0.0171784,0.0182515,0.00107314,-0.0204554,0.00929836,0.0111571
1.14,0.0181894,0.0216222,0.00343284,-0.0229852,0.00851968,0.0144655
1.145,0.0186831,0.024212,0.00552884,-0.0247655,0.00759464,0.0171709
1.15,0.0189911,0.0254884,0.00649734,-0.0256802,0.00721325,0.018467
1.155,0.0194439,0.0248099,0.00536604,-0.0255499,0.00812783,0.0174221
1.16,0.0199133,0.0223707,0.00245735,-0.0244127,0.0100782,0.0143345
1.165,0.0201964,0.0196712,-0.000525132,-0.0230175,0.0119636,0.011054
1.17,0.0202322,0.0173822,-0.00284995,-0.0217167,0.0133265,0.00839021
1.175,0.0197418,0.0155416,-0.0042001,-0.0203709,0.0138228,0.00654804
1.18,0.0184872,0.0140834,-0.00440381,-0.0188046,0.0132161,0.00558849
1.185,0.0165925,0.0135658,-0.00302673,-0.0174119,0.0113272,0.00608471
1.19,0.0145708,0.0146623,9.14E-05,-0.0168777,0.00835968,0.00851806
1.195,0.0129331,0.0152481,0.00231492,-0.0162704,0.00613042,0.01014
1.2,0.0117581,0.0137478,0.00198969,-0.0147258,0.00563978,0.00908603
1.205,0.0109776,0.0113839,0.000406304,-0.0129104,0.00610332,0.00680706
1.21,0.0104701,0.00927095,-0.0011991,-0.0113975,0.00673718,0.00466028
1.215,0.0101837,0.00717484,-0.00300883,-0.0100219,0.00761668,0.00240525
1.22,0.0101977,0.00536894,-0.00482879,-0.00898742,0.00867557,0.000311852
1.225,0.0104725,0.00509923,-0.00537327,-0.00899034,0.00914856,-0.000158216
1.23,0.0107332,0.00627056,-0.00446269,-0.00981715,0.00877337,0.00104377
1.235,0.0106832,0.00774304,-0.00294019,-0.0106384,0.00786549,0.00277292
1.24,0.0100966,0.00866986,-0.00142672,-0.0108348,0.00665298,0.00418182
1.245,0.00897735,0.00898915,1.18E-05,-0.010373,0.00517626,0.0051967
1.25,0.00768381,0.00757758,-0.000106232,-0.00881116,0.00449758,0.00431358
1.255,0.00665892,0.00369136,-0.00296755,-0.00597573,0.00555784,0.000417893
1.26,0.00606526,-0.00141773,-0.00748299,-0.00268325,0.00782208,-0.00513883
1.265,0.00556424,-0.00614163,-0.0117059,0.000333356,0.0099709,-0.0103043
1.27,0.00476939,-0.00984558,-0.014615,0.00293074,0.0111916,-0.0141223
1.275,0.00371114,-0.0112456,-0.0149568,0.00435004,0.0107779,-0.015128
1.28,0.00270092,-0.00984388,-0.0125448,0.00412399,0.00880211,-0.0129261
1.285,0.00212409,-0.00686006,-0.00898415,0.00273431,0.00641334,-0.00914765
1.29,0.00241242,-0.00408661,-0.00649903,0.000966596,0.00514503,-0.00611162
1.295,0.00335764,-0.00334732,-0.00670496,-5.96E-06,0.00580964,-0.00580368
1.3,0.00429648,-0.00399237,-0.00828885,-0.000175575,0.00726614,-0.00709057
1.305,0.00485878,-0.00387258,-0.00873137,-0.000569383,0.00784627,-0.00727689
1.31,0.00508419,-0.00298607,-0.00807026,-0.00121135,0.00759473,-0.00638338
1.315,0.00500777,-0.0035174,-0.00852517,-0.000860465,0.00781324,-0.00695278
1.32,0.00466768,-0.00503981,-0.00970749,0.000214854,0.0082995,-0.00851436
1.325,0.0042881,-0.00497205,-0.00926015,0.000394878,0.00782208,-0.00821696
1.33,0.00390321,-0.00365979,-0.007563,-0.000140537,0.00662002,-0.00647948
1.335,0.00354915,-0.00357306,-0.00712221,1.38E-05,0.00616111,-0.00617492
1.34,0.00353957,-0.00461512,-0.00815469,0.000620967,0.00675168,-0.00737265
1.345,0.00395934,-0.00529665,-0.00925599,0.000772093,0.00762987,-0.00840196
1.35,0.00457732,-0.00646819,-0.0110455,0.00109169,0.00901984,-0.0101115
1.355,0.0052922,-0.00806288,-0.0133551,0.00159965,0.010766,-0.0123657
1.36,0.00599616,-0.00904857,-0.0150447,0.00176231,0.012148,-0.0139103
1.365,0.00666797,-0.00882712,-0.0154951,0.00124658,0.0127958,-0.0140424
1.37,0.00725942,-0.00784299,-0.0151024,0.000336925,0.0129106,-0.0132475
1.375,0.00775986,-0.00692003,-0.0146799,-0.00048488,0.0129556,-0.0124707
1.38,0.0082312,-0.00703145,-0.0152627,-0.000692673,0.0135642,-0.0128715
1.385,0.00895715,-0.00851444,-0.0174716,-0.000255602,0.0152586,-0.015003
1.39,0.0100552,-0.0108728,-0.020928,0.00047208,0.0178881,-0.0183602
1.395,0.0114183,-0.0127224,-0.0241407,0.000752867,0.02053,-0.0212829
1.4,0.012972,-0.0121321,-0.0251042,-0.000484933,0.0219833,-0.0214984
1.405,0.0143911,-0.00790221,-0.0222933,-0.00374634,0.0211797,-0.0174334
1.41,0.0151519,-0.000170051,-0.015322,-0.00864978,0.0175941,-0.00894432
1.415,0.0148706,0.0103205,-0.00455003,-0.0145441,0.0112125,0.00333161
1.42,0.0137498,0.0223519,0.00860209,-0.0208433,0.00297204,0.0178713
1.425,0.0123024,0.0337026,0.0214002,-0.026561,-0.00525263,0.0318136
1.43,0.0111909,0.0437693,0.0325784,-0.0317313,-0.0123481,0.0440794
1.435,0.0115486,0.0546836,0.043135,-0.0382391,-0.0182364,0.0564756
1.44,0.013983,0.0687554,0.0547723,-0.047769,-0.0235497,0.0713187
1.445,0.0177869,0.0856086,0.0678218,-0.0596954,-0.0288877,0.0885831
1.45,0.0211757,0.101414,0.0802378,-0.0707769,-0.0340995,0.104876
1.455,0.0229618,0.113384,0.0904227,-0.0787195,-0.0389486,0.117668
1.46,0.0239732,0.121848,0.097875,-0.08419,-0.0426672,0.126857
1.465,0.0257093,0.127775,0.102066,-0.0886142,-0.0440845,0.132699
1.47,0.0287116,0.129178,0.100467,-0.0911576,-0.0414277,0.132585
1.475,0.0321657,0.122226,0.0900601,-0.0891379,-0.0334253,0.122563
1.48,0.0343645,0.106208,0.0718437,-0.0811596,-0.0216387,0.102798
1.485,0.0339965,0.0823696,0.0483731,-0.067184,-0.0083003,0.0754843
1.49,0.0310028,0.0528792,0.0218764,-0.0484292,0.00526913,0.0431601
1.495,0.0261385,0.0216382,-0.00450034,-0.0275839,0.0176894,0.00989455
1.5,0.020598,-0.0069446,-0.0275426,-0.00788278,0.027794,-0.0199112
1.505,0.01571,-0.0294294,-0.0451394,0.00792087,0.0351314,-0.0430523
1.51,0.0122825,-0.0444295,-0.0567121,0.0185601,0.039834,-0.0583941
1.515,0.0102987,-0.053357,-0.0636557,0.0248597,0.0426976,-0.0675573
1.52,0.00930673,-0.0588084,-0.0681151,0.0285798,0.0446995,-0.0732793
1.525,0.00875478,-0.0635319,-0.0722866,0.0316255,0.0467893,-0.0784148
1.53,0.00881113,-0.0684177,-0.0772288,0.0344139,0.0496752,-0.084089
1.535,0.0115293,-0.0705538,-0.0820831,0.0340778,0.0540471,-0.0881249
1.54,0.0202744,-0.0643259,-0.0846003,0.0254332,0.0605494,-0.0859826
1.545,0.0388626,-0.0424824,-0.081345,0.00208991,0.0694018,-0.0714917
1.55,0.0688757,0.00701465,-0.0618611,-0.0438153,0.0754809,-0.0316656
1.555,0.102162,0.101975,-0.000186704,-0.117858,0.0590908,0.0587674
1.56,0.123446,0.258347,0.134901,-0.220428,-0.00661308,0.227042
1.565,0.120932,0.476667,0.355736,-0.345024,-0.135564,0.480588
1.57,0.0883788,0.718189,0.629811,-0.465672,-0.312596,0.778268
1.575,0.0270544,0.904675,0.87762,-0.537934,-0.491074,1.02901
1.58,-0.0521768,0.963821,1.016,-0.526338,-0.61671,1.14305
1.585,-0.13086,0.878084,1.00894,-0.431409,-0.658066,1.08948
1.59,-0.188417,0.694516,0.882933,-0.292197,-0.618544,0.910741
1.595,-0.211037,0.486619,0.697656,-0.159107,-0.524634,0.683741
1.6,-0.197332,0.308601,0.505933,-0.0642415,-0.40603,0.470271
1.605,-0.157301,0.1811,0.338402,-0.0137404,-0.286194,0.299935
1.61,-0.105796,0.0988114,0.204607,0.0040325,-0.179211,0.175179
1.615,-0.0561626,0.0460795,0.102242,0.00582151,-0.091455,0.0856335
1.62,-0.0163692,0.0119986,0.0283678,0.00252335,-0.0258289,0.0233055
1.625,0.0113363,-0.00965403,-0.0209904,-0.000971285,0.0186638,-0.0176925
1.63,0.0283532,-0.0242124,-0.0525656,-0.00239068,0.0467184,-0.0443278
1.635,0.0376773,-0.0353719,-0.0730492,-0.00133104,0.063928,-0.0625969
1.64,0.0424136,-0.043775,-0.0861886,0.000786,0.0742485,-0.0750345
1.645,0.0450254,-0.0492287,-0.0942541,0.00242679,0.080413,-0.0828398
1.65,0.0472556,-0.0525715,-0.0998272,0.00306915,0.0849182,-0.0879874
1.655,0.0495486,-0.0550984,-0.104647,0.00320419,0.0890248,-0.0922289
1.66,0.0515638,-0.0572691,-0.108833,0.00329396,0.0926051,-0.0958991
1.665,0.0532969,-0.0586464,-0.111943,0.00308851,0.0954015,-0.09849
1.67,0.0550494,-0.0583548,-0.113404,0.00190837,0.0972567,-0.0991651
1.675,0.0571132,-0.0556732,-0.112786,-0.000831347,0.0980915,-0.0972602
1.68,0.0594039,-0.0516854,-0.111089,-0.0044563,0.0984342,-0.0939779
1.685,0.0615616,-0.0496737,-0.111235,-0.00686346,0.0997643,-0.0929008
1.69,0.0636126,-0.0488028,-0.112415,-0.00855041,0.10163,-0.0930794
1.695,0.0657737,-0.0445217,-0.110295,-0.0122698,0.101653,-0.0893836
1.7,0.0679682,-0.0360293,-0.103998,-0.01844,0.0992844,-0.0808445
1.705,0.0702255,-0.0254175,-0.0956431,-0.0258699,0.0957643,-0.0698944
1.71,0.0728098,-0.0148521,-0.0876618,-0.0334619,0.0926483,-0.0591864
1.715,0.0756859,-0.00607979,-0.0817657,-0.0401871,0.0909047,-0.0507176
1.72,0.0788028,0.000585541,-0.0782172,-0.0458348,0.0906555,-0.0448207
1.725,0.0823382,0.00488229,-0.0774559,-0.0503568,0.0922572,-0.0419004
1.73,0.086461,0.00697898,-0.079482,-0.0539476,0.0958072,-0.0418596
1.735,0.0909804,0.00765761,-0.0833227,-0.0569486,0.100634,-0.0436853
1.74,0.0956081,0.00797577,-0.0876323,-0.0598041,0.105794,-0.0459897
1.745,0.100439,0.00888298,-0.0915565,-0.0631173,0.110849,-0.0477315
1.75,0.105735,0.0127476,-0.0929873,-0.0684059,0.114732,-0.0463264
1.755,0.111695,0.0204933,-0.0912016,-0.0763188,0.117142,-0.0408234
1.76,0.118482,0.0308604,-0.0876218,-0.086223,0.118994,-0.0327711
1.765,0.125953,0.0412008,-0.0847526,-0.0965065,0.121651,-0.0251447
1.77,0.133636,0.0494656,-0.0841709,-0.105714,0.125751,-0.0200371
1.775,0.140882,0.0558481,-0.0850337,-0.113582,0.130432,-0.0168503
1.78,0.147433,0.0616468,-0.0857866,-0.120712,0.13465,-0.0139371
1.785,0.153177,0.0673222,-0.0858545,-0.127305,0.138005,-0.0106996
1.79,0.158118,0.0725845,-0.0855332,-0.133196,0.140672,-0.00747594
1.795,0.162401,0.0771735,-0.0852278,-0.138319,0.142969,-0.00465013
1.8,0.16549,0.0806814,-0.0848086,-0.142127,0.14451,-0.00238288
1.805,0.166846,0.0821926,-0.0846533,-0.143782,0.145203,-0.00142067
1.81,0.166549,0.0811555,-0.085394,-0.143012,0.14546,-0.00244709
1.815,0.16485,0.0779428,-0.0869068,-0.140176,0.145352,-0.00517538
1.82,0.161735,0.0743956,-0.0873396,-0.13633,0.143803,-0.00747324
1.825,0.156793,0.0721991,-0.0845938,-0.132209,0.139365,-0.00715609
1.83,0.149285,0.0706474,-0.0786371,-0.126978,0.131591,-0.00461283
1.835,0.138851,0.0676751,-0.071176,-0.119238,0.121259,-0.00202123
1.84,0.125715,0.0619573,-0.0637581,-0.108353,0.109393,-0.00103974
1.845,0.110735,0.0535235,-0.0572118,-0.0948348,0.0969642,-0.00212942
1.85,0.0950366,0.0424784,-0.0525582,-0.0793942,0.0852139,-0.00581961
1.855,0.0797636,0.0300673,-0.0496963,-0.0634109,0.0747437,-0.0113328
1.86,0.0659177,0.0172506,-0.0486671,-0.0480172,0.0661555,-0.0181383
1.865,0.0539588,0.00397263,-0.0499862,-0.0334467,0.0600127,-0.0265659
1.87,0.0438292,-0.00969108,-0.0535203,-0.0197096,0.0562047,-0.0364951
1.875,0.0355404,-0.0220321,-0.0575725,-0.007799,0.0537587,-0.0459597
1.88,0.0291827,-0.0316337,-0.0608164,0.00141508,0.0519609,-0.053376
1.885,0.024591,-0.0387636,-0.0633547,0.00818255,0.0507754,-0.058958
1.89,0.0214749,-0.0428591,-0.0643341,0.0123462,0.0495418,-0.061888
1.895,0.0195107,-0.0435032,-0.0630139,0.013852,0.0476456,-0.0614976
1.9,0.0184007,-0.0417668,-0.0601676,0.0134904,0.0453614,-0.0588518
1.905,0.0177992,-0.0393965,-0.0571957,0.0124692,0.0432983,-0.0557675
1.91,0.0175972,-0.0373027,-0.0548999,0.0113769,0.0418562,-0.0532331
1.915,0.0176962,-0.0353676,-0.0530638,0.0102026,0.0408533,-0.0510559
1.92,0.017934,-0.0326009,-0.0505348,0.00846793,0.0395305,-0.0479984
1.925,0.0182784,-0.0290552,-0.0473336,0.00622203,0.0378811,-0.0441031
1.93,0.0184982,-0.0258783,-0.0443766,0.0042609,0.0363008,-0.0405617
1.935,0.0183995,-0.0235901,-0.0419895,0.00299679,0.0348656,-0.0378624
1.94,0.0181361,-0.0218507,-0.0399867,0.00214461,0.0335572,-0.0357018
1.945,0.0180977,-0.0204259,-0.0385236,0.00134421,0.0326903,-0.0340345
1.95,0.0181572,-0.0187654,-0.0369225,0.000351137,0.0318003,-0.0321514
1.955,0.0183337,-0.0164561,-0.0347897,-0.00108405,0.0306708,-0.0295868
1.96,0.0186991,-0.0133392,-0.0320382,-0.00309454,0.0292932,-0.0261986
1.965,0.0190554,-0.00968825,-0.0287436,-0.00540812,0.0275968,-0.0221887
1.97,0.0194489,-0.00620989,-0.0256588,-0.00764357,0.026043,-0.0183994
1.975,0.0198867,-0.00386774,-0.0237545,-0.00924856,0.0251962,-0.0159477
1.98,0.0204066,-0.00261716,-0.0230237,-0.0102707,0.0250745,-0.0148038
1.985,0.0210731,-0.0021456,-0.0232187,-0.0109278,0.0255718,-0.0146441
1.99,0.0217346,-0.00202359,-0.0237582,-0.0113802,0.0262653,-0.0148851
1.995,0.0224784,-0.00263647,-0.0251149,-0.0114558,0.027478,-0.0160223
2,0.0234225,-0.0042127,-0.0276352,-0.0110908,0.0294782,-0.0183874
2.005,0.0240626,-0.00637677,-0.0304394,-0.0102109,0.0314667,-0.0212558
2.01,0.0239476,-0.00796491,-0.0319125,-0.0092276,0.0322508,-0.0230232
2.015,0.0234091,-0.00792524,-0.0313343,-0.0089396,0.0316061,-0.0226665
2.02,0.0227973,-0.00735873,-0.0301561,-0.00891348,0.0305727,-0.0216592
2.025,0.0220303,-0.00780241,-0.0298327,-0.00821446,0.0299431,-0.0217286
2.03,0.021119,-0.0095745,-0.0306935,-0.00666519,0.0299139,-0.0232487
2.035,0.0203172,-0.0127446,-0.0330618,-0.00437208,0.0308184,-0.0264463
2.04,0.0195941,-0.0171733,-0.0367674,-0.0013977,0.0325403,-0.0311426
2.045,0.01888,-0.0220506,-0.0409306,0.00183055,0.0345317,-0.0363622
2.05,0.0181427,-0.0268735,-0.0450161,0.00504072,0.0364647,-0.0415055
2.055,0.0173073,-0.0303158,-0.047623,0.00751046,0.0374875,-0.0449979
2.06,0.0162889,-0.0314237,-0.0477127,0.00873806,0.0369513,-0.0456894
2.065,0.0150038,-0.0313955,-0.0463993,0.00946378,0.0354511,-0.0449149
2.07,0.0135359,-0.0313812,-0.0449171,0.010303,0.0337479,-0.0440508
2.075,0.0120985,-0.0317888,-0.0438873,0.0113682,0.0323234,-0.0436916
2.08,0.010825,-0.0329224,-0.0437473,0.0127579,0.0315073,-0.0442653
2.085,0.00969825,-0.0338673,-0.0435655,0.013954,0.0307518,-0.0447058
2.09,0.00861592,-0.0336217,-0.0422376,0.0144371,0.0293603,-0.0437973
2.095,0.00738806,-0.0321297,-0.0395178,0.0142846,0.0270811,-0.0413656
2.1,0.00591991,-0.0315635,-0.0374834,0.0148053,0.0250589,-0.0398642
2.105,0.00448311,-0.0328673,-0.0373504,0.0163876,0.0241526,-0.0405402
2.11,0.0035321,-0.0340325,-0.0375646,0.0176094,0.0237272,-0.0413366
2.115,0.00308303,-0.0334195,-0.0365025,0.0175148,0.0228547,-0.0403695
2.12,0.00272728,-0.0317663,-0.0344936,0.0167657,0.0214894,-0.0382551
2.125,0.00212222,-0.0308375,-0.0329597,0.0165788,0.0202546,-0.0368334
2.13,0.00135738,-0.0314053,-0.0327627,0.0173481,0.0196992,-0.0370474
2.135,0.000782903,-0.0323871,-0.03317,0.0182467,0.0196027,-0.0378494
2.14,0.000332052,-0.0333341,-0.0336662,0.0190537,0.0196289,-0.0386826
2.145,-0.000152146,-0.0336437,-0.0334916,0.019512,0.0192485,-0.0387606
2.15,-0.000796494,-0.0334524,-0.0326559,0.0197736,0.018394,-0.0381676
2.155,-0.00153374,-0.0333431,-0.0318093,0.0201361,0.0174796,-0.0376157
2.16,-0.00204834,-0.0330662,-0.0310179,0.0202734,0.0167256,-0.036999
2.165,-0.00214358,-0.0325092,-0.0303656,0.0200068,0.016294,-0.0363007
2.17,-0.00187104,-0.0320439,-0.0301729,0.0195808,0.0163401,-0.0359209
2.175,-0.0011402,-0.0313641,-0.0302239,0.0187663,0.0167915,-0.0355578
2.18,-0.000178453,-0.0295687,-0.0293902,0.0171745,0.0168654,-0.03404
2.185,0.000645642,-0.0264204,-0.0270661,0.0148811,0.0159994,-0.0308804
2.19,0.00141142,-0.0204014,-0.0218128,0.0109638,0.0134085,-0.0243724
2.195,0.00194464,-0.0106842,-0.0126288,0.00504578,0.00841399,-0.0134598
2.2,0.00191326,0.00198279,6.95E-05,-0.00224938,0.00106447,0.00118491
2.205,0.00123086,0.0158411,0.0146102,-0.0098565,-0.00772459,0.0175811
2.21,-0.000221621,0.028438,0.0286596,-0.0162907,-0.0166746,0.0329653
2.215,-0.00222477,0.0392364,0.0414612,-0.0213687,-0.0252221,0.0465908
2.22,-0.00350132,0.0498252,0.0533265,-0.0267451,-0.0328096,0.0595547
2.225,-0.00256363,0.0612388,0.0638024,-0.0338761,-0.0383164,0.0721925
2.23,0.000869344,0.0741851,0.0733157,-0.0433327,-0.0418269,0.0851596
2.235,0.00555553,0.0888302,0.0832747,-0.0544936,-0.0448712,0.0993648
2.24,0.00974873,0.104392,0.0946429,-0.065899,-0.0490137,0.114913
2.245,0.0125001,0.118861,0.106361,-0.0758416,-0.0541907,0.130032
2.25,0.0146251,0.129952,0.115327,-0.0834718,-0.0581404,0.141612
2.255,0.0172489,0.135855,0.118606,-0.0883946,-0.0585186,0.146913
2.26,0.0203762,0.134352,0.113976,-0.0893326,-0.05404,0.143373
2.265,0.0230443,0.122726,0.0996816,-0.0841604,-0.0442466,0.128407
2.27,0.0240072,0.100654,0.0766466,-0.071973,-0.0303914,0.102364
2.275,0.0226768,0.0716378,0.0489611,-0.0544525,-0.0151753,0.0696278
2.28,0.019627,0.0415483,0.0219213,-0.0353195,-0.00132465,0.0366442
2.285,0.0154695,0.0138529,-0.0016166,-0.0169292,0.00986463,0.00706461
2.29,0.0107212,-0.00950289,-0.0202241,-0.0007034,0.0178663,-0.0171629
2.295,0.00641385,-0.02618,-0.0325939,0.011412,0.0225211,-0.0339331
2.3,0.00317421,-0.0366192,-0.0397934,0.0193095,0.0248074,-0.0441168
2.305,0.000865902,-0.0434484,-0.0443143,0.024585,0.0260848,-0.0506698
2.31,-0.000683033,-0.0474979,-0.0468149,0.0278173,0.0266342,-0.0544515
2.315,-0.00173488,-0.0497801,-0.0480452,0.0297422,0.0267373,-0.0564795
2.32,-0.00230736,-0.052747,-0.0504397,0.0317857,0.0277892,-0.0595749
2.325,-0.000429621,-0.0564532,-0.0560236,0.0328413,0.0320972,-0.0649385
2.33,0.00793007,-0.0549921,-0.0629222,0.0271713,0.0409066,-0.0680778
2.335,0.0274288,-0.0367643,-0.0641931,0.00538986,0.0528979,-0.0582877
2.34,0.0595593,0.0123816,-0.0471777,-0.0415351,0.0616247,-0.0200895
2.345,0.0957222,0.106852,0.0111296,-0.116956,0.0488396,0.0681166
2.35,0.12013,0.259503,0.139373,-0.219182,-0.0111096,0.230291
2.355,0.120446,0.471455,0.351009,-0.341734,-0.133115,0.47485
2.36,0.0901601,0.708712,0.618552,-0.461229,-0.305067,0.766296
2.365,0.0295988,0.897576,0.867977,-0.535304,-0.484038,1.01934
2.37,-0.0516362,0.964893,1.01653,-0.527269,-0.616705,1.14397
2.375,-0.135613,0.889628,1.02524,-0.43533,-0.670219,1.10555
2.38,-0.20068,0.715296,0.915976,-0.297114,-0.644701,0.941815
2.385,-0.23107,0.513932,0.745002,-0.16331,-0.563535,0.726845
2.39,-0.22333,0.339135,0.562465,-0.0668599,-0.453679,0.520539
2.395,-0.186419,0.211514,0.397933,-0.0144884,-0.337376,0.351865
2.4,-0.13547,0.129713,0.265183,0.00332404,-0.231317,0.227993
2.405,-0.0846189,0.0811832,0.165802,0.00198356,-0.144581,0.142597
2.41,-0.0428411,0.0512423,0.0940834,-0.0048504,-0.0790534,0.0839038
2.415,-0.0136416,0.0293024,0.0429441,-0.00904174,-0.0326698,0.0417115
2.42,0.00390298,0.0107315,0.00682851,-0.00844922,-0.00168906,0.0101383
2.425,0.0132214,-0.00477477,-0.0179962,-0.00487667,0.0180235,-0.0131468
2.43,0.0180911,-0.016253,-0.034344,-0.00106122,0.0302734,-0.0292122
2.435,0.0210819,-0.0228857,-0.0439676,0.00104139,0.0375563,-0.0385977
2.44,0.0233506,-0.0251317,-0.0484824,0.00102832,0.0414728,-0.0425011
2.445,0.0254381,-0.0249116,-0.0503497,-0.000303926,0.0437561,-0.0434521
2.45,0.027716,-0.0227682,-0.0504843,-0.00285662,0.045149,-0.0422923
2.455,0.0304161,-0.0186684,-0.0490845,-0.00678258,0.0458997,-0.0391171
2.46,0.0336659,-0.013492,-0.0471579,-0.0116474,0.0466636,-0.0350162
2.465,0.0371262,-0.00836933,-0.0454955,-0.0166028,0.0477017,-0.0310989
2.47,0.0402142,-0.00417223,-0.0443864,-0.0208088,0.0488442,-0.0280353
2.475,0.0428249,0.00016167,-0.0426633,-0.0248183,0.0493566,-0.0245383
2.48,0.0451044,0.00536051,-0.0397439,-0.0291359,0.0489872,-0.0198513
2.485,0.0472496,0.0111913,-0.0360582,-0.0337409,0.0480978,-0.0143569
2.49,0.0494295,0.0171962,-0.0322333,-0.0384663,0.047148,-0.00868171
2.495,0.0518199,0.0224814,-0.0293385,-0.0428978,0.0468568,-0.00395896
2.5,0.0545931,0.0270966,-0.0274966,-0.0471636,0.0473945,-0.000230933
2.505,0.0580247,0.0319348,-0.0260899,-0.0519381,0.0485635,0.00337459
2.51,0.062114,0.0380367,-0.0240773,-0.057822,0.0497625,0.00805946
2.515,0.0665787,0.0453946,-0.0211841,-0.0646478,0.0506698,0.0139779
2.52,0.0714221,0.0527759,-0.0186462,-0.0717057,0.0520009,0.0197048
2.525,0.0765275,0.0586578,-0.0178697,-0.0780493,0.0545002,0.0235491
2.53,0.0815341,0.0632812,-0.0182529,-0.0836091,0.057612,0.0259971
2.535,0.0861697,0.0667305,-0.0194392,-0.0882769,0.0609733,0.0273036
2.54,0.0907452,0.0705234,-0.0202219,-0.0931084,0.0640669,0.0290416
2.545,0.0956676,0.0774751,-0.0181925,-0.0999639,0.0657372,0.0342268
2.55,0.101095,0.0880496,-0.0130451,-0.109202,0.0658985,0.0433038
2.555,0.107208,0.0999451,-0.00726309,-0.1196,0.06609,0.0535099
2.56,0.114243,0.110139,-0.00410367,-0.129547,0.0683274,0.0612196
2.565,0.121866,0.118001,-0.00386477,-0.138488,0.0725908,0.0658968
2.57,0.129314,0.124728,-0.00458609,-0.146672,0.0773075,0.0693641
2.575,0.135789,0.130024,-0.0057646,-0.153467,0.0817258,0.0717412
2.58,0.140832,0.133427,-0.00740558,-0.158343,0.0855851,0.0727583
2.585,0.144108,0.135757,-0.00835067,-0.16158,0.0880218,0.073558
2.59,0.145611,0.137258,-0.00835271,-0.163314,0.0888908,0.0744235
2.595,0.145745,0.137337,-0.00840843,-0.163437,0.0890005,0.0744366
2.6,0.144942,0.136147,-0.00879538,-0.162287,0.0887604,0.0735264
2.605,0.143227,0.135083,-0.00814405,-0.160682,0.0873939,0.073288
2.61,0.139905,0.134794,-0.0051109,-0.158598,0.0837252,0.0748728
2.615,0.134315,0.135193,0.000878274,-0.155601,0.0770398,0.078561
2.62,0.126249,0.135496,0.00924727,-0.151119,0.0675511,0.0835678
2.625,0.115687,0.135403,0.0197158,-0.144967,0.0554091,0.0895578
2.63,0.103068,0.134078,0.0310096,-0.136916,0.0416029,0.0953132
2.635,0.0890834,0.129957,0.0408738,-0.126463,0.0278338,0.0986292
2.64,0.0745781,0.122805,0.0482273,-0.113959,0.0152136,0.0987457
2.645,0.0603164,0.113692,0.0533755,-0.100464,0.00400733,0.0964563
2.65,0.0467723,0.103709,0.0569369,-0.0868805,-0.00586856,0.092749
2.655,0.0344865,0.0938388,0.0593523,-0.0740886,-0.0143563,0.0884449
2.66,0.024043,0.0839946,0.0599516,-0.0623755,-0.0207318,0.0831073
2.665,0.0158698,0.0741574,0.0582877,-0.0519772,-0.02449,0.0764672
2.67,0.00984119,0.0652433,0.0554021,-0.04335,-0.0263046,0.0696546
2.675,0.0053801,0.0581152,0.0527351,-0.036659,-0.0273404,0.0639994
2.68,0.0017661,0.0529617,0.0511956,-0.0315971,-0.0285381,0.0601352
2.685,-0.00136507,0.0497949,0.05116,-0.027961,-0.0303253,0.0582863
2.69,-0.00392189,0.0483999,0.0523218,-0.0256794,-0.0324723,0.0581517
2.695,-0.0057978,0.0486432,0.054441,-0.0247368,-0.0347789,0.0595157
2.7,-0.00712315,0.0496071,0.0567302,-0.0245281,-0.0368657,0.0613938
2.705,-0.00809856,0.0506377,0.0587363,-0.02456,-0.0385871,0.0631471
2.71,-0.00864076,0.0519213,0.060562,-0.024988,-0.0399542,0.0649422
2.715,-0.00877773,0.0533752,0.0621529,-0.0257483,-0.0409518,0.0667002
2.72,-0.00859713,0.0548752,0.0634723,-0.0267187,-0.0416093,0.068328
2.725,-0.00819864,0.0564754,0.064674,-0.0278726,-0.042073,0.0699456
2.73,-0.0075986,0.0594572,0.0670558,-0.0299406,-0.0431017,0.0730423
2.735,-0.00678589,0.063361,0.0701469,-0.0326637,-0.0444171,0.0770808
2.74,-0.00575314,0.0671667,0.0729198,-0.0354571,-0.0454218,0.0808789
2.745,-0.00450872,0.0699338,0.0744426,-0.0377732,-0.0455825,0.0833557
2.75,-0.00303585,0.0718293,0.0748652,-0.0397179,-0.0449762,0.0846941
2.755,-0.00165508,0.0742801,0.0759352,-0.04193,-0.0447967,0.0867268
2.76,-0.000574465,0.07792,0.0784944,-0.0446554,-0.0456504,0.0903059
2.765,0.000208078,0.0815418,0.0813337,-0.0471983,-0.0468379,0.0940362
2.77,0.000733912,0.0832469,0.082513,-0.0484863,-0.0472151,0.0957014
2.775,0.0011898,0.0841647,0.0829749,-0.0492794,-0.0472186,0.096498
2.78,0.00149719,0.0861439,0.0846467,-0.0505996,-0.0480064,0.0986059
2.785,0.00125267,0.0878846,0.0866319,-0.0514634,-0.0492937,0.100757
2.79,0.000427351,0.0881203,0.087693,-0.051123,-0.0503828,0.101506
2.795,-0.000370436,0.0873382,0.0877086,-0.0502108,-0.0508524,0.101063
2.8,-0.000744366,0.0861718,0.0869162,-0.0493215,-0.0506108,0.0999324
2.805,-0.000985446,0.0850491,0.0860346,-0.0485342,-0.050241,0.0987752
2.81,-0.00153801,0.0837371,0.0852751,-0.0474577,-0.0501216,0.0975792
2.815,-0.00252251,0.0817719,0.0842944,-0.0457547,-0.0501238,0.0958784
2.82,-0.00376027,0.079966,0.0837263,-0.0439974,-0.0505104,0.0945078
2.825,-0.00509644,0.0788137,0.0839102,-0.0425607,-0.051388,0.0939486
2.83,-0.0063684,0.0781486,0.0845169,-0.0414423,-0.0524727,0.0939149
2.835,-0.00742011,0.0770524,0.0844725,-0.0402022,-0.0530542,0.0932564
2.84,-0.0083325,0.0743214,0.0826539,-0.0380987,-0.052531,0.0906297
2.845,-0.0093315,0.0704546,0.0797861,-0.0352894,-0.051452,0.0867414
2.85,-0.0105666,0.0671676,0.0777341,-0.0326786,-0.0509804,0.083659
2.855,-0.0119557,0.0652484,0.077204,-0.0307685,-0.0514764,0.0822449
2.86,-0.01328,0.0650573,0.0783373,-0.0298936,-0.0528952,0.0827888
2.865,-0.0142415,0.0664335,0.0806749,-0.030133,-0.0548,0.084933
2.87,-0.0148094,0.0689063,0.0837157,-0.0312328,-0.0568835,0.0881163
2.875,-0.0151576,0.0714389,0.0865966,-0.032494,-0.0587478,0.0912418
2.88,-0.0154436,0.0726866,0.0881302,-0.0330492,-0.0597984,0.0928476
2.885,-0.0156752,0.0724058,0.0880809,-0.0327534,-0.0599036,0.092657
2.89,-0.0160413,0.0712194,0.0872607,-0.0318571,-0.0596414,0.0914985
2.895,-0.016547,0.0699625,0.0865094,-0.0308394,-0.0594996,0.090339
2.9,-0.0168006,0.069675,0.0864756,-0.0305271,-0.0596265,0.0901535
2.905,-0.0164912,0.070583,0.0870742,-0.0312299,-0.0597935,0.0910234
2.91,-0.0158104,0.0717592,0.0875697,-0.0323021,-0.0596865,0.0919885
2.915,-0.0151774,0.0711248,0.0863022,-0.0323012,-0.0585892,0.0908905
2.92,-0.0150126,0.0679632,0.0829758,-0.030571,-0.0565736,0.0871446
2.925,-0.0153807,0.0642918,0.0796725,-0.0282388,-0.054879,0.0831178
2.93,-0.0160315,0.0629641,0.0789956,-0.0270965,-0.0548639,0.0819604
2.935,-0.0166415,0.0644346,0.0810762,-0.0275933,-0.0564173,0.0840107
2.94,-0.0170668,0.0666332,0.0837,-0.0286172,-0.0581777,0.0867949
2.945,-0.017545,0.0687578,0.0863028,-0.0295677,-0.0599565,0.0895242
2.95,-0.018235,0.0717426,0.0899776,-0.0308926,-0.0624765,0.0933691
2.955,-0.0188167,0.0755218,0.0943386,-0.0327387,-0.0653302,0.0980689
2.96,-0.0189295,0.0786388,0.0975683,-0.0344732,-0.06726,0.101733
2.965,-0.0184036,0.0796633,0.0980669,-0.0353683,-0.0672442,0.102613
2.97,-0.0175645,0.0792983,0.0968628,-0.035642,-0.0660646,0.101707
2.975,-0.0170936,0.0786038,0.0956974,-0.0355129,-0.0651199,0.100633
2.98,-0.0172494,0.0782866,0.095536,-0.0352398,-0.0651166,0.100356
2.985,-0.0178347,0.0778934,0.0957282,-0.0346749,-0.0655655,0.10024
2.99,-0.0185708,0.078306,0.0968768,-0.0344881,-0.0666536,0.101142
2.995,-0.0190502,0.0807862,0.0998364,-0.0356432,-0.0686392,0.104282
3,-0.0191785,0.0846187,0.103797,-0.0377819,-0.071,0.108782
3.005,-0.0192052,0.0876677,0.106873,-0.0395268,-0.0727912,0.112318
3.01,-0.0192915,0.0886025,0.107894,-0.0400167,-0.0734305,0.113447
3.015,-0.0196014,0.0893107,0.108912,-0.0402466,-0.0741973,0.114444
3.02,-0.0203627,0.0922436,0.112606,-0.0415005,-0.0767697,0.11827
3.025,-0.0216088,0.0989705,0.120579,-0.0446648,-0.0820923,0.126757
3.03,-0.0234302,0.109225,0.132655,-0.0495334,-0.0901156,0.139649
3.035,-0.0257699,0.121698,0.147468,-0.0553841,-0.100019,0.155403
3.04,-0.0284597,0.135078,0.163538,-0.061556,-0.11085,0.172406
3.045,-0.0310743,0.148503,0.179577,-0.0677973,-0.121619,0.189417
3.05,-0.0326294,0.161799,0.194428,-0.074576,-0.131092,0.205668
3.055,-0.031903,0.175935,0.207838,-0.0831568,-0.138414,0.221571
3.06,-0.0291234,0.192049,0.221172,-0.094065,-0.144508,0.238573
3.065,-0.0257726,0.209543,0.235315,-0.1061,-0.150739,0.256839
3.07,-0.0234046,0.226726,0.250131,-0.117388,-0.157926,0.275314
3.075,-0.0221666,0.242302,0.264469,-0.127095,-0.165489,0.292584
3.08,-0.0211735,0.254167,0.27534,-0.134519,-0.171192,0.305711
3.085,-0.019608,0.258555,0.278164,-0.137956,-0.171918,0.309875
3.09,-0.0170572,0.252134,0.269192,-0.135722,-0.165266,0.300988
3.095,-0.0141896,0.234672,0.248861,-0.127295,-0.151872,0.279168
3.1,-0.0124474,0.208085,0.220533,-0.112952,-0.134511,0.247462
3.105,-0.012777,0.176038,0.188815,-0.0942587,-0.116389,0.210648
3.11,-0.0151351,0.144118,0.159253,-0.0744685,-0.100683,0.175152
3.115,-0.0186377,0.117228,0.135865,-0.0569209,-0.0892024,0.146123
3.12,-0.0222927,0.0960944,0.118387,-0.0426094,-0.0812215,0.123831
3.125,-0.0254649,0.0800833,0.105548,-0.0315339,-0.0756404,0.107174
3.13,-0.0278678,0.068761,0.0966288,-0.0236097,-0.0718781,0.0954878
3.135,-0.0292838,0.0608722,0.090156,-0.0182376,-0.0689585,0.0871961
3.14,-0.0297521,0.0555985,0.0853506,-0.0149224,-0.0664545,0.081377
3.145,-0.0293085,0.0535113,0.0828198,-0.0139735,-0.0647373,0.0787108
3.15,-0.0268874,0.0554646,0.082352,-0.0164991,-0.0630693,0.0795684
3.155,-0.0196925,0.0629476,0.0826401,-0.0249734,-0.0590817,0.0840551
3.16,-0.00414578,0.081474,0.0856198,-0.0446454,-0.0518261,0.0964716
3.165,0.0212399,0.122321,0.101081,-0.082885,-0.0460964,0.128981
3.17,0.0499077,0.200286,0.150379,-0.144449,-0.0580068,0.202456
3.175,0.0684679,0.331245,0.262777,-0.230774,-0.112184,0.342958
3.18,0.0663568,0.522866,0.456509,-0.340188,-0.225254,0.565442
3.185,0.0393392,0.753485,0.714146,-0.457737,-0.3896,0.847336
3.19,-0.0128638,0.959256,0.97212,-0.546399,-0.56868,1.11508
3.195,-0.0846305,1.06195,1.14658,-0.564255,-0.71084,1.2751
3.2,-0.163005,1.02321,1.18621,-0.496637,-0.778971,1.27561
3.205,-0.229169,0.871749,1.10092,-0.370993,-0.767926,1.13892
3.21,-0.265974,0.677282,0.943255,-0.237469,-0.698148,0.935617
3.215,-0.266298,0.500886,0.767185,-0.135439,-0.596681,0.732121
3.22,-0.236046,0.368022,0.604069,-0.0761965,-0.48504,0.561237
3.225,-0.188786,0.277152,0.465938,-0.0510181,-0.378005,0.429023
3.23,-0.138318,0.217283,0.355601,-0.0455908,-0.285164,0.330754
3.235,-0.0943587,0.177356,0.271715,-0.0479184,-0.211352,0.259271
3.24,-0.0614023,0.149558,0.21096,-0.0508964,-0.157248,0.208145
3.245,-0.0395798,0.129347,0.168927,-0.0518271,-0.120381,0.172208
3.25,-0.0265268,0.114301,0.140828,-0.0506767,-0.0966224,0.147299
3.255,-0.0189109,0.104016,0.122927,-0.0491356,-0.0818902,0.131026
3.26,-0.0140376,0.0979298,0.111967,-0.0484351,-0.072749,0.121184
3.265,-0.010455,0.0933844,0.103839,-0.0478793,-0.0659879,0.113867
3.27,-0.00756702,0.0897911,0.0973581,-0.0474721,-0.0605785,0.108051
3.275,-0.00512566,0.0892128,0.0943385,-0.0485477,-0.0574256,0.105973
3.28,-0.00276854,0.0924355,0.0952041,-0.0517692,-0.0565645,0.108334
3.285,-0.00028511,0.0985526,0.0988377,-0.0567347,-0.0572286,0.113963
3.29,0.00234683,0.10546,0.103113,-0.062242,-0.0581772,0.120419
3.295,0.00491432,0.109815,0.104901,-0.0662391,-0.0577272,0.123966
3.3,0.0071375,0.110973,0.103835,-0.068191,-0.0558285,0.124019
3.305,0.00886345,0.111937,0.103074,-0.0697444,-0.0543925,0.124137
3.31,0.0103073,0.115113,0.104806,-0.0724117,-0.0545589,0.126971
3.315,0.0119227,0.120172,0.108249,-0.076265,-0.0556142,0.131879
3.32,0.0138146,0.125499,0.111684,-0.0804325,-0.0565049,0.136937
3.325,0.0157765,0.130302,0.114525,-0.0843383,-0.0570125,0.141351
3.33,0.0178011,0.134538,0.116737,-0.087953,-0.0571205,0.145073
3.335,0.0200634,0.138845,0.118781,-0.0917457,-0.0569949,0.148741
3.34,0.0227181,0.14353,0.120812,-0.0959834,-0.0566345,0.152618
3.345,0.0259735,0.148816,0.122842,-0.100915,-0.0559273,0.156842
3.35,0.029983,0.15266,0.122677,-0.105449,-0.0535166,0.158965
3.355,0.0348573,0.154559,0.119702,-0.10936,-0.0489852,0.158345
3.36,0.040821,0.156165,0.115344,-0.11373,-0.0430256,0.156755
3.365,0.0476338,0.158823,0.111189,-0.119198,-0.0366938,0.155892
3.37,0.0545776,0.164077,0.1095,-0.12624,-0.0317094,0.15795
3.375,0.0615647,0.172057,0.110493,-0.134882,-0.0282485,0.16313
3.38,0.0687688,0.181307,0.112538,-0.144381,-0.0252702,0.169651
3.385,0.0762436,0.189332,0.113088,-0.15333,-0.0212724,0.174602
3.39,0.0840556,0.195283,0.111227,-0.161276,-0.0156876,0.176964
3.395,0.0918991,0.199893,0.107994,-0.168466,-0.00929248,0.177759
3.4,0.0993265,0.202472,0.103146,-0.174243,-0.00220489,0.176448
3.405,0.106085,0.203168,0.0970827,-0.178547,0.00519748,0.17335
3.41,0.111927,0.204744,0.0928167,-0.18283,0.0110335,0.171797
3.415,0.11638,0.208201,0.0918216,-0.187397,0.0141785,0.173218
3.42,0.1191,0.211338,0.092238,-0.190779,0.0155089,0.17527
3.425,0.120032,0.212596,0.0925647,-0.192043,0.015858,0.176185
3.43,0.119351,0.21239,0.0930393,-0.19153,0.0151909,0.17634
3.435,0.116913,0.211798,0.0948848,-0.189781,0.0127179,0.177063
3.44,0.112101,0.211094,0.0989936,-0.186597,0.00756738,0.179029
3.445,0.104882,0.211032,0.106149,-0.182393,-0.000731512,0.183124
3.45,0.0955344,0.211223,0.115689,-0.177107,-0.0116362,0.188743
3.455,0.0840433,0.208933,0.12489,-0.16915,-0.0235829,0.192733
3.46,0.0706053,0.202015,0.13141,-0.157398,-0.0351057,0.192503
3.465,0.055963,0.191897,0.135934,-0.143102,-0.0461714,0.189273
3.47,0.0410944,0.181142,0.140047,-0.128308,-0.0571304,0.185438
3.475,0.0268191,0.169777,0.142958,-0.113505,-0.0670525,0.180557
3.48,0.0137452,0.157099,0.143353,-0.0986367,-0.0748293,0.173466
3.485,0.00231725,0.144155,0.141838,-0.084566,-0.0805524,0.165118
3.49,-0.00745997,0.131397,0.138857,-0.0715549,-0.0844759,0.156031
3.495,-0.0156711,0.119033,0.134704,-0.059676,-0.0868191,0.146495
3.5,-0.022188,0.109135,0.131323,-0.0501989,-0.0886296,0.138828
3.505,-0.0270467,0.101899,0.128945,-0.0432158,-0.090062,0.133278
3.51,-0.0306376,0.0961886,0.126826,-0.0378458,-0.0909118,0.128758
3.515,-0.0333134,0.0927423,0.126056,-0.0343112,-0.0920118,0.126323
3.52,-0.0353699,0.0902017,0.125572,-0.0316572,-0.0929196,0.124577
3.525,-0.0370045,0.0864641,0.123469,-0.0285555,-0.0926492,0.121205
3.53,-0.0380127,0.0829613,0.120974,-0.025951,-0.091791,0.117742
3.535,-0.0380868,0.0830405,0.121127,-0.025954,-0.0919223,0.117876
3.54,-0.0373221,0.0871112,0.124433,-0.0287457,-0.0933895,0.122135
3.545,-0.0361409,0.0933251,0.129466,-0.0330153,-0.0956131,0.128628
3.55,-0.0351095,0.100242,0.135352,-0.0376045,-0.0984158,0.13602
3.555,-0.0343352,0.106083,0.140419,-0.0414239,-0.100894,0.142318
3.56,-0.0335299,0.110063,0.143593,-0.0441866,-0.102262,0.146449
3.565,-0.0328662,0.112901,0.145767,-0.0462079,-0.103134,0.149342
3.57,-0.0326097,0.114897,0.147507,-0.0475088,-0.10399,0.151499
3.575,-0.0328081,0.115311,0.14812,-0.0476333,-0.104459,0.152092
3.58,-0.0331147,0.113962,0.147076,-0.0466769,-0.104033,0.15071
3.585,-0.0330836,0.112462,0.145545,-0.045829,-0.103131,0.14896
3.59,-0.0326212,0.112355,0.144977,-0.0460345,-0.102536,0.148571
3.595,-0.0317652,0.114359,0.146124,-0.0476856,-0.102704,0.15039
3.6,-0.0306333,0.116389,0.147022,-0.049511,-0.102569,0.15208
3.605,-0.0296899,0.115869,0.145559,-0.0497558,-0.10118,0.150936
3.61,-0.0290215,0.11369,0.142712,-0.0488834,-0.0991501,0.148033
3.615,-0.0285054,0.11169,0.140196,-0.0480269,-0.0973997,0.145427
3.62,-0.0281376,0.109803,0.137941,-0.0471495,-0.0958853,0.143035
3.625,-0.0281209,0.108396,0.136516,-0.0463466,-0.0950533,0.1414
3.63,-0.0283834,0.108512,0.136896,-0.0462624,-0.0954238,0.141686
3.635,-0.0287312,0.109845,0.138576,-0.046831,-0.0965948,0.143426
3.64,-0.0292883,0.110344,0.139633,-0.0467978,-0.0975266,0.144324
3.645,-0.0302286,0.108575,0.138804,-0.0452333,-0.0975907,0.142824
3.65,-0.03165,0.104825,0.136475,-0.0422477,-0.0970671,0.139315
3.655,-0.0333471,0.100353,0.133701,-0.0386862,-0.0964449,0.135131
3.66,-0.0351496,0.0966194,0.131769,-0.0354896,-0.0963704,0.13186
3.665,-0.0370031,0.093804,0.130807,-0.032794,-0.0968853,0.129679
3.67,-0.0388843,0.0910721,0.129956,-0.0301306,-0.0974802,0.127611
3.675,-0.0408225,0.0879909,0.128813,-0.0272327,-0.0979393,0.125172
3.68,-0.0428561,0.0845252,0.127381,-0.0240577,-0.0982865,0.122344
3.685,-0.0447898,0.0817648,0.126555,-0.0213475,-0.0989257,0.120273
3.69,-0.046279,0.0810219,0.127301,-0.0200588,-0.100216,0.120275
3.695,-0.047203,0.081092,0.128295,-0.0195658,-0.101324,0.12089
3.7,-0.0476587,0.0795716,0.12723,-0.0184249,-0.100972,0.119397
3.705,-0.0478875,0.0768884,0.124776,-0.0167436,-0.0996872,0.116431
3.71,-0.0481028,0.0746153,0.122718,-0.015307,-0.0986234,0.11393
3.715,-0.0482582,0.0727551,0.121013,-0.0141433,-0.0977289,0.111872
3.72,-0.0483328,0.0704971,0.11883,-0.0127965,-0.0965114,0.109308
3.725,-0.0482989,0.0679037,0.116203,-0.0113189,-0.0949749,0.106294
3.73,-0.0483501,0.0651863,0.113536,-0.0097204,-0.0934652,0.103186
3.735,-0.0485348,0.0632376,0.111772,-0.00848863,-0.0925534,0.101042
3.74,-0.0486529,0.0629411,0.111594,-0.00824932,-0.0925186,0.100768
3.745,-0.048602,0.0644141,0.113016,-0.00912913,-0.0933102,0.102439
3.75,-0.0486157,0.0667875,0.115403,-0.0104915,-0.0946964,0.105188
3.755,-0.049002,0.0687672,0.117769,-0.0114115,-0.0962853,0.107697
3.76,-0.0498249,0.068971,0.118796,-0.011054,-0.0973532,0.108407
3.765,-0.0509378,0.0669735,0.117911,-0.00925825,-0.097485,0.106743
3.77,-0.0518715,0.0649961,0.116868,-0.00757745,-0.0974215,0.104999
3.775,-0.0524399,0.0648243,0.117264,-0.00715014,-0.0979786,0.105129
3.78,-0.0530173,0.0652297,0.118247,-0.00705082,-0.0988794,0.10593
3.785,-0.0535857,0.0653021,0.118888,-0.00676451,-0.0995776,0.106342
3.79,-0.0537854,0.0653269,0.119112,-0.00666347,-0.0998226,0.106486
3.795,-0.0536499,0.065539,0.119189,-0.00686414,-0.0997884,0.106653
3.8,-0.0535247,0.0655353,0.11906,-0.00693428,-0.0996418,0.106576
3.805,-0.0535512,0.0655827,0.119134,-0.00694638,-0.0996998,0.106646
3.81,-0.0535721,0.0671206,0.120693,-0.00782227,-0.100612,0.108434
3.815,-0.0533261,0.0695367,0.122863,-0.00935919,-0.101723,0.111082
3.82,-0.0528524,0.0719964,0.124849,-0.0110528,-0.102596,0.113649
3.825,-0.0523373,0.0756847,0.128022,-0.0134796,-0.10413,0.11761
3.83,-0.0519703,0.0814148,0.133385,-0.0169998,-0.107015,0.124015
3.835,-0.0518135,0.0884339,0.140247,-0.0211428,-0.110886,0.132029
3.84,-0.0520253,0.0966028,0.148628,-0.0257368,-0.115847,0.141584
3.845,-0.0527584,0.106362,0.15912,-0.030948,-0.122328,0.153276
3.85,-0.0539332,0.117004,0.170938,-0.0364141,-0.129829,0.166243
3.855,-0.0546183,0.129639,0.184257,-0.0433129,-0.137915,0.181227
3.86,-0.0533761,0.144874,0.19825,-0.0528262,-0.145276,0.198102
3.865,-0.0500657,0.161348,0.211414,-0.064249,-0.150965,0.215214
3.87,-0.0464076,0.177797,0.224205,-0.0758576,-0.156238,0.232096
3.875,-0.0441841,0.191336,0.23552,-0.0849582,-0.161487,0.246445
3.88,-0.0438253,0.200111,0.243936,-0.0902315,-0.166139,0.256371
3.885,-0.04416,0.205833,0.249992,-0.0933417,-0.169829,0.263171
3.89,-0.0436486,0.209529,0.253178,-0.0957713,-0.171373,0.267144
3.895,-0.0417994,0.209448,0.251248,-0.0967921,-0.169191,0.265983
3.9,-0.0393729,0.201199,0.240572,-0.0934304,-0.161626,0.255057
3.905,-0.0377291,0.181419,0.219148,-0.0829591,-0.148308,0.231267
3.91,-0.0381179,0.152219,0.190337,-0.0658762,-0.131898,0.197774
3.915,-0.0405913,0.119585,0.160176,-0.0456071,-0.115913,0.16152
3.92,-0.0437875,0.0902651,0.134053,-0.0268338,-0.102676,0.12951
3.925,-0.0467682,0.0673826,0.114151,-0.0119017,-0.0929065,0.104808
3.93,-0.0494832,0.0502685,0.0997517,-0.000453446,-0.0861607,0.0866142
3.935,-0.0520793,0.0370339,0.0891132,0.00868643,-0.0815175,0.072831
3.94,-0.0542283,0.0268644,0.0810927,0.0157985,-0.0781276,0.0623291
3.945,-0.0554879,0.0201998,0.0756877,0.0203736,-0.0757342,0.0553607
3.95,-0.0558154,0.0164439,0.0722593,0.0227312,-0.073944,0.0512128
3.955,-0.0549746,0.0148628,0.0698375,0.0231586,-0.0720603,0.0489017
3.96,-0.050872,0.0151993,0.0660713,0.0205957,-0.0675172,0.0469215
3.965,-0.0398559,0.0219879,0.0618438,0.0103161,-0.0587163,0.0484003
3.97,-0.0177328,0.0462269,0.0639597,-0.0164511,-0.0471652,0.0636163
3.975,0.0149911,0.103063,0.0880715,-0.0681583,-0.042193,0.110351
3.98,0.0475846,0.210178,0.162593,-0.148819,-0.0664003,0.215219
3.985,0.0654547,0.381918,0.316463,-0.258291,-0.14492,0.40321
3.99,0.058795,0.611888,0.553093,-0.387219,-0.285383,0.672602
3.995,0.0229443,0.853157,0.830212,-0.505817,-0.466076,0.971893
4,-0.039457,1.0249,1.06436,-0.568947,-0.637288,1.20623
4.005,-0.117138,1.05993,1.17707,-0.544324,-0.747212,1.29154
4.01,-0.191831,0.953215,1.14505,-0.439585,-0.771846,1.21143
4.015,-0.244536,0.760935,1.00547,-0.298143,-0.721691,1.01983
4.02,-0.26372,0.554583,0.818303,-0.16793,-0.624706,0.792635
4.025,-0.249271,0.38152,0.630791,-0.0763539,-0.508104,0.584458
4.03,-0.211269,0.25879,0.470059,-0.0274367,-0.393364,0.420801
4.035,-0.163598,0.181283,0.344881,-0.0102107,-0.29357,0.303781
4.04,-0.11824,0.132858,0.251099,-0.00843984,-0.213238,0.221678
4.045,-0.0824242,0.0990638,0.181488,-0.00960688,-0.15237,0.161977
4.05,-0.0582242,0.0725627,0.130787,-0.00827831,-0.109126,0.117404
4.055,-0.0439123,0.0510486,0.094961,-0.00412016,-0.0801785,0.0842987
4.06,-0.0361506,0.0351452,0.0712958,0.000580425,-0.0620342,0.0614537
4.065,-0.0319642,0.0256577,0.0576218,0.00364106,-0.0517225,0.0480814
4.07,-0.0293509,0.0225631,0.051914,0.00391896,-0.0469183,0.0429994
4.075,-0.0272708,0.0245193,0.0517901,0.00158863,-0.0456458,0.0440572
4.08,-0.0252409,0.0294862,0.0547271,-0.00245101,-0.0461695,0.0486205
4.085,-0.0230654,0.0352644,0.0583298,-0.00704311,-0.0469935,0.0540366
4.09,-0.0209339,0.0381214,0.0590552,-0.00992318,-0.0461817,0.0561049
4.095,-0.0188588,0.0368047,0.0556635,-0.0103611,-0.0430254,0.0533865
4.1,-0.0167162,0.0335426,0.0502588,-0.00971469,-0.038668,0.0483827
4.105,-0.0146824,0.031049,0.0457313,-0.00944926,-0.0348799,0.0443291
4.11,-0.0129517,0.0298818,0.0428335,-0.00977458,-0.0322076,0.0419822
4.115,-0.0112879,0.0300551,0.0413431,-0.0108352,-0.0303865,0.0412218
4.12,-0.00907327,0.0330677,0.042141,-0.0138532,-0.0295686,0.0434218
4.125,-0.00617355,0.038582,0.0447556,-0.018711,-0.0294039,0.048115
4.13,-0.00272915,0.0449964,0.0477256,-0.024403,-0.02913,0.0535331
4.135,0.000942176,0.0519706,0.0510285,-0.0305492,-0.0289173,0.0594665
4.14,0.00481507,0.0603652,0.0555502,-0.0376318,-0.0292919,0.0669238
4.145,0.00888211,0.0695879,0.0607058,-0.0453047,-0.0299204,0.0752251
4.15,0.0129775,0.0773196,0.0643422,-0.052133,-0.0296554,0.0817884
4.155,0.0171089,0.0826347,0.0655258,-0.057587,-0.0279535,0.0855405
4.16,0.0214381,0.0868552,0.065417,-0.0625231,-0.0253912,0.0879143
4.165,0.0261384,0.0909974,0.064859,-0.0676284,-0.0223553,0.0899837
4.17,0.0313369,0.0951592,0.0638222,-0.0730325,-0.0187554,0.0917879
4.175,0.0371033,0.0995186,0.0624153,-0.0788786,-0.0146139,0.0934925
4.18,0.0434313,0.103526,0.060095,-0.084846,-0.00962079,0.0944668
4.185,0.0504339,0.107841,0.0574072,-0.0913801,-0.00402607,0.0954061
4.19,0.0580624,0.113957,0.0558944,-0.0993152,0.0012517,0.0980635
4.195,0.0656112,0.122142,0.0565307,-0.108399,0.00524261,0.103157
4.2,0.0727162,0.13072,0.0580037,-0.117454,0.00849429,0.10896
4.205,0.0795036,0.137288,0.0577847,-0.125165,0.0125394,0.112625
4.21,0.0858412,0.141302,0.0554605,-0.131141,0.0175403,0.113601
4.215,0.0916781,0.143338,0.0516603,-0.135687,0.0231043,0.112583
4.22,0.0964902,0.14393,0.0474396,-0.138806,0.0283194,0.110487
4.225,0.0998385,0.144471,0.044633,-0.141052,0.0318729,0.109179
4.23,0.101468,0.146114,0.0446461,-0.142942,0.0328062,0.110135
4.235,0.101124,0.147786,0.0466625,-0.143708,0.0314433,0.112265
4.24,0.0985609,0.147254,0.0486932,-0.141921,0.0287911,0.11313
4.245,0.094017,0.145201,0.0511839,-0.138112,0.0247297,0.113383
4.25,0.0878519,0.143221,0.0553686,-0.13341,0.0187542,0.114655
4.255,0.0796909,0.141908,0.0622168,-0.12794,0.0100887,0.117851
4.26,0.0689525,0.139827,0.0708744,-0.120539,-0.00110958,0.121648
4.265,0.0558074,0.13488,0.0790731,-0.110094,-0.0134324,0.123526
4.27,0.0411115,0.126054,0.0849427,-0.0965131,-0.0253059,0.121819
4.275,0.0262828,0.114043,0.0877604,-0.0810172,-0.035494,0.116511
4.28,0.0126469,0.100881,0.0882339,-0.0655452,-0.0436402,0.109185
4.285,0.00103693,0.0878816,0.0868447,-0.0513371,-0.0495411,0.100878
4.29,-0.00873381,0.0762629,0.0849967,-0.0389879,-0.0541153,0.0931033
4.295,-0.0171454,0.0670058,0.0841513,-0.0287869,-0.0584836,0.0872706
4.3,-0.0242002,0.0591014,0.0833016,-0.0201502,-0.0620662,0.0822163
4.305,-0.0300363,0.0512652,0.0813015,-0.0122565,-0.0642809,0.0765374
4.31,-0.0347736,0.0440359,0.0788095,-0.00534756,-0.0655772,0.0709248
4.315,-0.0386673,0.0384108,0.0770781,0.000148087,-0.0668256,0.0666775
4.32,-0.0418118,0.0351252,0.076937,0.00386054,-0.0685597,0.0646991
4.325,-0.0440481,0.0334665,0.0775146,0.00610926,-0.0701842,0.0640749
4.33,-0.0455044,0.0313808,0.0768852,0.00815423,-0.0706616,0.0625074
4.335,-0.0461604,0.02975,0.0759103,0.00947454,-0.0704775,0.061003
4.34,-0.0460086,0.0304113,0.0764199,0.00900511,-0.0706841,0.061679
4.345,-0.0454009,0.0320628,0.0774637,0.00770073,-0.0709358,0.0632351
4.35,-0.0447557,0.0330766,0.0778323,0.00674288,-0.0707762,0.0640333
4.355,-0.0441481,0.0331466,0.0772947,0.00635174,-0.070115,0.0637633
4.36,-0.0431941,0.0332589,0.076453,0.00573612,-0.0690783,0.0633422
4.365,-0.0417706,0.0344803,0.0762509,0.00420904,-0.0681397,0.0639306
4.37,-0.0404183,0.037049,0.0774673,0.00194529,-0.0680613,0.066116
4.375,-0.039584,0.0406246,0.0802086,-0.000600771,-0.0691623,0.0697631
4.38,-0.0392144,0.0442668,0.0834812,-0.00291698,-0.0708383,0.0737553
4.385,-0.0390919,0.0481015,0.0871934,-0.00520165,-0.0729108,0.0781125
4.39,-0.0390126,0.0521862,0.0911989,-0.00760577,-0.0751776,0.0827834
4.395,-0.0388934,0.0544189,0.0933123,-0.00896361,-0.076329,0.0852926
4.4,-0.0387212,0.0544979,0.0932191,-0.00910865,-0.0761758,0.0852844
4.405,-0.0385173,0.054103,0.0926203,-0.00899845,-0.0757123,0.0847107
4.41,-0.0382486,0.0531861,0.0914348,-0.00862418,-0.0748727,0.0834969
4.415,-0.0378831,0.0519058,0.0897889,-0.00809596,-0.0737114,0.0818074
4.42,-0.037256,0.0515386,0.0887946,-0.00824609,-0.0727753,0.0810214
4.425,-0.0360853,0.0521721,0.0882573,-0.00928771,-0.0717892,0.0810769
4.43,-0.0345964,0.0529253,0.0875216,-0.0105822,-0.0705048,0.081087
4.435,-0.033313,0.0529693,0.0862824,-0.0113486,-0.0690484,0.080397
4.44,-0.0328052,0.0511815,0.0839867,-0.0106096,-0.0674298,0.0780394
4.445,-0.0330877,0.0483167,0.0814044,-0.00879243,-0.066102,0.0748945
4.45,-0.0334213,0.0462348,0.0796561,-0.00739786,-0.0652853,0.0726831
4.455,-0.0332757,0.045543,0.0788187,-0.00708257,-0.0647177,0.0718002
4.46,-0.033049,0.0455106,0.0785596,-0.00719466,-0.0644372,0.0716319
4.465,-0.0331891,0.045299,0.0784881,-0.00699162,-0.0644769,0.0714685
4.47,-0.0337144,0.0446957,0.0784101,-0.00634003,-0.0647351,0.0710751
4.475,-0.0347011,0.0428166,0.0775177,-0.00468549,-0.0647895,0.069475
4.48,-0.0359209,0.0387101,0.0746311,-0.00161033,-0.0638272,0.0654375
4.485,-0.0368669,0.0328392,0.0697061,0.0023254,-0.0615299,0.0592045
4.49,-0.0374481,0.0274228,0.064871,0.00578809,-0.0590739,0.0532858
4.495,-0.0377353,0.0232959,0.0610311,0.00833657,-0.0570228,0.0486862
4.5,-0.0377897,0.0199171,0.0577067,0.0103187,-0.0551348,0.0448161
4.505,-0.0378122,0.0170073,0.0548196,0.0120117,-0.053481,0.0414692
4.51,-0.0379211,0.0144608,0.0523818,0.0135448,-0.0521364,0.0385916
4.515,-0.0379863,0.0137894,0.0517757,0.0139701,-0.0518241,0.037854
4.52,-0.0377893,0.0148956,0.052685,0.0132177,-0.0522353,0.0390177
4.525,-0.037366,0.0143852,0.0517512,0.013268,-0.0514518,0.0381839
4.53,-0.0369795,0.0116863,0.0486658,0.014603,-0.0494473,0.0348443
4.535,-0.03691,0.0096994,0.0466094,0.0157101,-0.04822,0.0325099
4.54,-0.0370867,0.00991623,0.0470029,0.0156869,-0.0485491,0.0328623
4.545,-0.037357,0.0116094,0.0489664,0.0148653,-0.0498388,0.0349735
4.55,-0.0378357,0.0137466,0.0515823,0.0139078,-0.0516254,0.0377176
4.555,-0.0385039,0.0151405,0.0536443,0.0134888,-0.0532018,0.0397129
4.56,-0.0390887,0.0148342,0.0539229,0.0140033,-0.0537002,0.0396969
4.565,-0.0394152,0.0137972,0.0532124,0.0147905,-0.0534786,0.038688
4.57,-0.0394727,0.0141587,0.0536314,0.0146151,-0.0537536,0.0391386
4.575,-0.0391343,0.0173004,0.0564347,0.0126058,-0.0551768,0.042571
4.58,-0.0385649,0.0234061,0.061971,0.00875193,-0.0580444,0.0492924
4.585,-0.0383302,0.0327096,0.0710398,0.00324503,-0.0631447,0.0598997
4.59,-0.0385927,0.0445439,0.0831366,-0.00343592,-0.0702804,0.0737163
4.595,-0.039238,0.0567897,0.0960276,-0.0101335,-0.0780956,0.0882291
4.6,-0.0402309,0.0681421,0.108373,-0.0161145,-0.0857964,0.101911
4.605,-0.0407275,0.0800314,0.120759,-0.0226921,-0.0932342,0.115926
4.61,-0.0396911,0.093986,0.133677,-0.0313472,-0.100094,0.131441
4.615,-0.0372586,0.109841,0.1471,-0.0419056,-0.106439,0.148345
4.62,-0.034504,0.1266,0.161104,-0.0531717,-0.112934,0.166106
4.625,-0.0323204,0.142365,0.174686,-0.0635345,-0.119515,0.18305
4.63,-0.0307742,0.155155,0.185929,-0.071811,-0.125113,0.196924
4.635,-0.0291968,0.163644,0.19284,-0.0776229,-0.128193,0.205816
4.64,-0.0269719,0.166631,0.193603,-0.080632,-0.127349,0.207981
4.645,-0.0240746,0.162417,0.186491,-0.0798719,-0.12157,0.201442
4.65,-0.0211823,0.14941,0.170592,-0.0740322,-0.110721,0.184753
4.655,-0.019637,0.127158,0.146795,-0.0620775,-0.0960898,0.158167
4.66,-0.0203476,0.0965847,0.116932,-0.0440155,-0.0792585,0.123274
4.665,-0.0230391,0.0618258,0.084865,-0.0223935,-0.0622984,0.0846919
4.67,-0.0267532,0.0296317,0.0563849,-0.00166192,-0.0479998,0.0496617
4.675,-0.0307118,0.00510675,0.0358185,0.0147831,-0.0384112,0.0236282
4.68,-0.0343266,-0.0118463,0.0224803,0.0266579,-0.0327974,0.00613953
4.685,-0.037148,-0.0229495,0.0141985,0.0346973,-0.0296449,-0.00505242
4.69,-0.0389571,-0.030347,0.00861006,0.0400127,-0.0274629,-0.0125498
4.695,-0.0401243,-0.036413,0.00371129,0.0441888,-0.0253085,-0.0188803
4.7,-0.0410123,-0.0408616,0.000150695,0.0472698,-0.0237654,-0.0235044
4.705,-0.041537,-0.0432782,-0.0017412,0.0489681,-0.0229761,-0.025992
4.71,-0.0402971,-0.0449044,-0.00460729,0.0491911,-0.0206055,-0.0285856
4.715,-0.0339722,-0.0429819,-0.00900972,0.0444295,-0.0144121,-0.0300174
4.72,-0.0177712,-0.0275309,-0.00975974,0.0261552,-0.00462541,-0.0215298
4.725,0.0105715,0.0170289,0.00645743,-0.0159351,0.00237524,0.0135598
4.73,0.043801,0.108775,0.064974,-0.0880898,-0.0122242,0.100314
4.735,0.0669728,0.262945,0.195973,-0.190478,-0.074478,0.264956
4.74,0.0676908,0.479539,0.411848,-0.315943,-0.198699,0.514642
4.745,0.0394323,0.721511,0.682078,-0.43933,-0.371032,0.810362
4.75,-0.0171305,0.912353,0.929483,-0.516857,-0.546527,1.06338
4.755,-0.0927421,0.978014,1.07076,-0.511112,-0.671746,1.18286
4.76,-0.170491,0.898016,1.06851,-0.420036,-0.715336,1.13537
4.765,-0.230448,0.716409,0.946856,-0.28057,-0.679717,0.960286
4.77,-0.258332,0.508362,0.766695,-0.144355,-0.591799,0.736154
4.775,-0.25089,0.331156,0.582047,-0.0463415,-0.480896,0.527238
4.78,-0.21651,0.204787,0.421297,0.0067685,-0.368238,0.36147
4.785,-0.169479,0.123457,0.292936,0.0265704,-0.266975,0.240405
4.79,-0.122694,0.073128,0.195822,0.028617,-0.183895,0.155278
4.795,-0.083739,0.0418339,0.125573,0.0241939,-0.120846,0.0966523
4.8,-0.0553113,0.0212314,0.0765427,0.0196761,-0.0761259,0.0564498
4.805,-0.0367926,0.00613541,0.042928,0.0176999,-0.0460266,0.0283267
4.81,-0.0258561,-0.00658761,0.0192685,0.0187314,-0.0260526,0.00732128
4.815,-0.0200895,-0.017994,0.0020955,0.0219875,-0.0128085,-0.00917902
4.82,-0.017197,-0.0270017,-0.00980472,0.0255181,-0.00426794,-0.0212502
4.825,-0.0153861,-0.0326575,-0.0172714,0.027738,0.00108847,-0.0288265
4.83,-0.0137585,-0.0349242,-0.0211657,0.028107,0.00427657,-0.0323836
4.835,-0.0119724,-0.0348506,-0.0228781,0.0270332,0.00629641,-0.0333297
4.84,-0.00973924,-0.0343847,-0.0246455,0.025475,0.00860611,-0.0340811
4.845,-0.0072174,-0.0342926,-0.0270752,0.0239658,0.0114649,-0.0354307
4.85,-0.00479765,-0.0343491,-0.0295515,0.0226014,0.0142916,-0.036893
4.855,-0.00260441,-0.0342024,-0.031598,0.0212504,0.0167394,-0.0379898
4.86,-0.000620261,-0.033448,-0.0328277,0.0196693,0.018595,-0.0382643
4.865,0.00160974,-0.0305367,-0.0321465,0.016701,0.0194891,-0.0361901
4.87,0.00430378,-0.0252733,-0.029577,0.0121067,0.0195611,-0.0316678
4.875,0.00723133,-0.0200016,-0.027233,0.00737293,0.019898,-0.0272709
4.88,0.0101944,-0.0162338,-0.0264282,0.0034869,0.021144,-0.0246309
4.885,0.0133685,-0.0126208,-0.0259894,-0.000431681,0.0227233,-0.0222916
4.89,0.0169639,-0.0079507,-0.0249146,-0.00520378,0.0241786,-0.0189748
4.895,0.020672,-0.00274197,-0.023414,-0.0103519,0.025453,-0.0151011
4.9,0.024474,0.00333686,-0.0211372,-0.0160566,0.0263336,-0.010277
4.905,0.0285425,0.00992334,-0.0186191,-0.0222082,0.0272288,-0.00502051
4.91,0.032821,0.0156691,-0.0171519,-0.0279957,0.0288519,-0.00085614
4.915,0.0373313,0.0209558,-0.0163755,-0.0336521,0.0310077,0.00264443
4.92,0.0422476,0.0270138,-0.0152337,-0.0399881,0.0331868,0.00680123
4.925,0.0478643,0.0333703,-0.0144941,-0.0469008,0.0360026,0.0108982
4.93,0.0545043,0.0405323,-0.013972,-0.0548694,0.0395348,0.0153346
4.935,0.0622426,0.0485239,-0.0137187,-0.063951,0.0438562,0.0200948
4.94,0.0708129,0.0567276,-0.0140853,-0.0736355,0.049016,0.0246195
4.945,0.07994,0.0648738,-0.0150661,-0.0836082,0.0548518,0.0287565
4.95,0.0888712,0.071228,-0.0176431,-0.0924333,0.061496,0.0309372
4.955,0.0967898,0.0747406,-0.0220492,-0.0990331,0.0686117,0.0304214
4.96,0.103482,0.0757751,-0.0277073,-0.103494,0.0757424,0.0277519
4.965,0.108809,0.0759017,-0.0329077,-0.106643,0.0818203,0.0248226
4.97,0.112598,0.0764649,-0.0361335,-0.109156,0.0858704,0.0232853
4.975,0.114752,0.0765729,-0.0381791,-0.110461,0.0882948,0.0221667
4.98,0.11557,0.0754506,-0.0401198,-0.110286,0.0898877,0.0203982
4.985,0.115375,0.0732984,-0.0420767,-0.108931,0.0909048,0.0180259
4.99,0.113841,0.0705156,-0.0433256,-0.106438,0.0907403,0.0156981
4.995,0.110264,0.0687519,-0.0415123,-0.103355,0.0876282,0.0157268
5,0.104296,0.0688738,-0.0354219,-0.0999793,0.0806659,0.0193135
5.005,0.0960674,0.0700834,-0.025984,-0.0959272,0.0704664,0.0254608
5.01,0.0855937,0.070301,-0.0152927,-0.0900058,0.0582467,0.031759
5.015,0.0729884,0.0676117,-0.00537669,-0.0811755,0.0452441,0.0359314
5.02,0.0585837,0.0613726,0.00278893,-0.0692568,0.0322131,0.0370437
5.025,0.043483,0.0532452,0.00976216,-0.0558461,0.0194687,0.0363773
5.03,0.029181,0.0449191,0.0157381,-0.0427817,0.00776127,0.0350205
5.035,0.0163889,0.035361,0.0189721,-0.0298778,-0.00149143,0.0313692
5.04,0.00534031,0.0243876,0.0190473,-0.0171634,-0.00791372,0.0250771
5.045,-0.00381636,0.0131187,0.0169351,-0.00537071,-0.0119808,0.0173516
5.05,-0.0109435,0.00353531,0.0144788,0.00427714,-0.0146776,0.0104005
5.055,-0.0161585,-0.00316882,0.0129897,0.0111586,-0.0168287,0.00567006
5.06,-0.0200641,-0.00788723,0.0121769,0.0161377,-0.0186144,0.00247665
5.065,-0.0231921,-0.0110983,0.0120938,0.0197976,-0.0203724,0.000574785
5.07,-0.0256603,-0.0130682,0.0125921,0.0223599,-0.022085,-0.000274889
5.075,-0.0272608,-0.0150715,0.0121893,0.0244406,-0.0227765,-0.00166408
5.08,-0.0280335,-0.0172213,0.0108122,0.0261279,-0.0224276,-0.00370029
5.085,-0.028107,-0.0187594,0.00934763,0.0270583,-0.0216244,-0.00543387
5.09,-0.0274985,-0.0191403,0.00835815,0.0269269,-0.0207018,-0.00622508
5.095,-0.0267651,-0.0182651,0.00849998,0.0259982,-0.0203603,-0.00563791
5.1,-0.0262017,-0.0167134,0.00948831,0.024777,-0.0206056,-0.00417138
5.105,-0.0258711,-0.0149872,0.0108838,0.0235895,-0.0212204,-0.0023691
5.11,-0.0254049,-0.0120851,0.0133198,0.0216449,-0.0223577,0.000712844
5.115,-0.024513,-0.00780073,0.0167123,0.0186563,-0.0238014,0.00514507
5.12,-0.0236799,-0.00336021,0.0203197,0.0156116,-0.0254032,0.00979158
5.125,-0.0229278,-4.58E-05,0.022882,0.0132639,-0.0264483,0.0131845
5.13,-0.0219937,0.0018884,0.0238821,0.0116078,-0.0264864,0.0148786
5.135,-0.0211129,0.00403688,0.0251498,0.00985886,-0.0267098,0.0168509
5.14,-0.0204535,0.00691751,0.027371,0.00781499,-0.0276114,0.0197965
5.145,-0.0197123,0.00986683,0.0295791,0.00568429,-0.0284584,0.0227741
5.15,-0.01854,0.0133179,0.0318579,0.00301499,-0.0290972,0.0260822
5.155,-0.0170249,0.01748,0.034505,-0.000262748,-0.0297508,0.0300135
5.16,-0.0153594,0.0211879,0.0365473,-0.00336506,-0.0299684,0.0333334
5.165,-0.0136065,0.0233531,0.0369596,-0.00562724,-0.0291943,0.0348215
5.17,-0.0118467,0.0229182,0.0347649,-0.00639212,-0.0269112,0.0333034
5.175,-0.0101586,0.0199084,0.030067,-0.00562908,-0.0232242,0.0288533
5.18,-0.00881958,0.0157963,0.0246159,-0.00402802,-0.019304,0.023332
5.185,-0.00772303,0.011765,0.0194881,-0.00233365,-0.0157103,0.018044
5.19,-0.00670428,0.007814,0.0145183,-0.000640701,-0.0122528,0.0128935
5.195,-0.00602403,0.00396879,0.00999282,0.00118659,-0.00924733,0.00806073
5.2,-0.00608638,2.49E-06,0.00608887,0.00351254,-0.00702938,0.00351684
5.205,-0.00703136,-0.00363287,0.00339849,0.00615699,-0.00602167,-0.000135319
5.21,-0.00858628,-0.00590672,0.00267956,0.00836754,-0.00650434,-0.0018632
5.215,-0.0102231,-0.00701242,0.00321063,0.0099509,-0.00775594,-0.00219496
5.22,-0.0116696,-0.00822732,0.00344233,0.0114875,-0.0087249,-0.00276261
5.225,-0.0128921,-0.0103153,0.0025768,0.0133988,-0.00893099,-0.00446784
5.23,-0.0140053,-0.014206,-0.000200704,0.0162878,-0.00797011,-0.00831774
5.235,-0.0150448,-0.0202109,-0.00516614,0.0203549,-0.00570344,-0.0146515
5.24,-0.0158663,-0.0251518,-0.00928543,0.0236818,-0.00379948,-0.0198823
5.245,-0.0168943,-0.0265859,-0.00969163,0.0251033,-0.00415846,-0.0209449
5.25,-0.0186792,-0.0249,-0.0062208,0.0251605,-0.00719287,-0.0179676
5.255,-0.0210302,-0.0214412,-0.000411026,0.0245209,-0.0119045,-0.0126164
5.26,-0.0232858,-0.0190713,0.00421452,0.0244548,-0.0158773,-0.00857754
5.265,-0.0248607,-0.0196743,0.00518647,0.0257123,-0.0173478,-0.00836453
5.27,-0.0254187,-0.0221571,0.00326164,0.0274679,-0.0165586,-0.0109093
5.275,-0.0251771,-0.0245417,0.00063538,0.0287052,-0.0149028,-0.0138023
5.28,-0.0246129,-0.0247614,-0.000148492,0.0285063,-0.0141245,-0.0143817
5.285,-0.0241776,-0.0234347,0.000742842,0.0274889,-0.0143878,-0.0131012
5.29,-0.0240525,-0.0243754,-0.000322903,0.0279599,-0.0137003,-0.0142596
5.295,-0.0241414,-0.0287808,-0.00463938,0.0305547,-0.0112595,-0.0192952
5.3,-0.0243572,-0.0339496,-0.00959235,0.0336635,-0.00852451,-0.0251389
5.305,-0.0248613,-0.0380841,-0.0132229,0.0363415,-0.00671943,-0.0296221
5.31,-0.0259491,-0.0408462,-0.0148971,0.0385642,-0.00638085,-0.0321834
5.315,-0.0275844,-0.0420074,-0.0144229,0.0401788,-0.00759879,-0.03258
5.32,-0.0294474,-0.0421821,-0.0127347,0.0413553,-0.00964913,-0.0317062
5.325,-0.031073,-0.0431009,-0.0120279,0.0428243,-0.0109957,-0.0318286
5.33,-0.0323078,-0.0451032,-0.0127953,0.0446932,-0.0112655,-0.0334277
5.335,-0.0331032,-0.0466103,-0.0135071,0.0460226,-0.0113138,-0.0347088
5.34,-0.0330865,-0.0468295,-0.013743,0.0461395,-0.011168,-0.0349715
5.345,-0.0323481,-0.0463267,-0.0139786,0.0454229,-0.0106056,-0.0348173
5.35,-0.0313568,-0.0456272,-0.0142705,0.0444467,-0.0098648,-0.0345819
5.355,-0.0304569,-0.044671,-0.0142141,0.0433751,-0.00937781,-0.0339973
5.36,-0.0297613,-0.0433381,-0.0135768,0.0422039,-0.00934411,-0.0328598
5.365,-0.0292759,-0.0424162,-0.0131403,0.0413914,-0.00931589,-0.0320755
5.37,-0.0289582,-0.0423832,-0.013425,0.0411889,-0.00896806,-0.0322209
5.375,-0.028857,-0.0429061,-0.0140491,0.0414324,-0.00854931,-0.0328831
5.38,-0.0290866,-0.043736,-0.0146494,0.0420441,-0.00833535,-0.0337088
5.385,-0.0294048,-0.0437671,-0.0143623,0.0422458,-0.00868479,-0.033561
5.39,-0.0291686,-0.0402096,-0.011041,0.0400555,-0.0104659,-0.0295896
5.395,-0.0285085,-0.0314124,-0.00290391,0.0345953,-0.0147828,-0.0198125
5.4,-0.0280455,-0.0178178,0.0102277,0.0264791,-0.022097,-0.00438215
5.405,-0.0280638,-0.0011172,0.0269466,0.0168477,-0.0317603,0.0149126
5.41,-0.0285429,0.0162313,0.0447741,0.00710809,-0.0423296,0.0352215
5.415,-0.0288893,0.0325691,0.0614584,-0.00212452,-0.0521622,0.0542868
5.42,-0.0280013,0.0481092,0.0761106,-0.0116093,-0.060109,0.0717183
5.425,-0.0254965,0.063279,0.0887756,-0.0218137,-0.065975,0.0877887
5.43,-0.0225555,0.0777501,0.100306,-0.0318666,-0.0709339,0.1028
5.435,-0.0207402,0.0912036,0.111944,-0.0406821,-0.0766051,0.117287
5.44,-0.0208444,0.103517,0.124361,-0.0477308,-0.0838344,0.131565
5.445,-0.0219859,0.114197,0.136183,-0.0532381,-0.0913187,0.144557
5.45,-0.0224556,0.121811,0.144266,-0.0573628,-0.096257,0.15362
5.455,-0.0211196,0.123381,0.144501,-0.0590407,-0.095621,0.154662
5.46,-0.0182691,0.114798,0.133067,-0.0557311,-0.0873741,0.143105
5.465,-0.0154575,0.0951633,0.110621,-0.0460181,-0.0727913,0.118809
5.47,-0.014212,0.0681367,0.0823487,-0.0311334,-0.0557493,0.0868827
5.475,-0.015077,0.0379322,0.0530092,-0.0131954,-0.0393096,0.052505
5.48,-0.0177897,0.00822626,0.026016,0.00552146,-0.0252912,0.0197698
5.485,-0.0214657,-0.0174858,0.00397988,0.0224886,-0.014691,-0.00779764
5.49,-0.0251451,-0.0378322,-0.0126871,0.0363599,-0.00719265,-0.0291673
5.495,-0.028179,-0.0531252,-0.0249461,0.046941,-0.00186653,-0.0450744
5.5,-0.0303593,-0.0637851,-0.0334258,0.0543543,0.00177042,-0.0561247
5.505,-0.0319188,-0.0698201,-0.0379013,0.058739,0.003454,-0.062193
5.51,-0.0330662,-0.0725452,-0.039479,0.0609747,0.00370242,-0.0646771
5.515,-0.0335874,-0.0740116,-0.0404243,0.0621223,0.00394731,-0.0660696
5.52,-0.0317415,-0.0751183,-0.0433768,0.0616955,0.00671768,-0.0684132
5.525,-0.024252,-0.0726559,-0.0484039,0.0559498,0.0139441,-0.0698939
5.53,-0.00775174,-0.0567652,-0.0490135,0.0372489,0.0238225,-0.0610713
5.535,0.0178267,-0.0139532,-0.0317799,-0.00223641,0.0286404,-0.026404
5.54,0.0446139,0.0710546,0.0264407,-0.0667812,0.0104923,0.0562889
5.545,0.0596411,0.212591,0.15295,-0.157173,-0.0538717,0.211045
5.55,0.0538235,0.413194,0.35937,-0.269632,-0.176407,0.44604
5.555,0.0240021,0.645889,0.621887,-0.386762,-0.345189,0.73195
5.56,-0.0295883,0.843616,0.873204,-0.469979,-0.521227,0.991206
5.565,-0.10073,0.929855,1.03058,-0.478695,-0.653164,1.13186
5.57,-0.17585,0.873653,1.0495,-0.402877,-0.707457,1.11033
5.575,-0.236504,0.711046,0.94755,-0.273976,-0.683614,0.95759
5.58,-0.266863,0.512264,0.779127,-0.141682,-0.603902,0.745584
5.585,-0.261503,0.334871,0.596374,-0.0423593,-0.495295,0.537655
5.59,-0.227408,0.202244,0.429652,0.0145284,-0.379353,0.364825
5.595,-0.178193,0.112671,0.290864,0.0378291,-0.27081,0.232981
5.6,-0.12732,0.0549986,0.182319,0.0417548,-0.17877,0.137015
5.605,-0.0838087,0.0172351,0.101044,0.0384363,-0.106725,0.0682883
5.61,-0.0514349,-0.00994979,0.0414852,0.0354405,-0.0536474,0.0182069
5.615,-0.0301486,-0.0315062,-0.00135762,0.0355964,-0.0166225,-0.0189739
5.62,-0.0174684,-0.0484505,-0.0309822,0.0380583,0.00780219,-0.0458605
5.625,-0.0103118,-0.0611384,-0.0508265,0.0412518,0.0233912,-0.0646429
5.63,-0.00629166,-0.0698078,-0.0635161,0.043936,0.0330385,-0.0769745
5.635,-0.00383164,-0.0750276,-0.0711959,0.0455294,0.0388928,-0.0844221
5.64,-0.00195154,-0.0774108,-0.0754592,0.0458198,0.0424397,-0.0882595
5.645,-0.000162402,-0.0784876,-0.0783252,0.0454086,0.0451273,-0.0905358
5.65,0.00157578,-0.0797772,-0.081353,0.0451496,0.0478789,-0.0930285
5.655,0.00315259,-0.0813302,-0.0844828,0.0451359,0.0505963,-0.0957322
5.66,0.00465233,-0.0814569,-0.0861093,0.0443431,0.0524012,-0.0967443
5.665,0.00617605,-0.0788482,-0.0850242,0.0419572,0.0526545,-0.0946117
5.67,0.00790104,-0.0740872,-0.0819883,0.0382126,0.0518976,-0.0901102
5.675,0.0099952,-0.0688439,-0.0788391,0.0339763,0.0512885,-0.0852647
5.68,0.0122407,-0.0639261,-0.0761669,0.0298406,0.0510421,-0.0808827
5.685,0.014638,-0.0597019,-0.0743399,0.0260176,0.0513714,-0.0773891
5.69,0.0175901,-0.0557214,-0.0733114,0.0220151,0.052482,-0.0744971
5.695,0.0211551,-0.0507151,-0.0718702,0.0170665,0.0537081,-0.0707746
5.7,0.024863,-0.0445654,-0.0694284,0.0113752,0.0544391,-0.0658143
5.705,0.0284271,-0.0386344,-0.0670615,0.00589317,0.0551303,-0.0610235
5.71,0.0320816,-0.0335664,-0.065648,0.000857262,0.0564241,-0.0572814
5.715,0.036099,-0.0292198,-0.0653188,-0.00397172,0.0585535,-0.0545818
5.72,0.0403195,-0.024802,-0.0651215,-0.00895904,0.0608764,-0.0519173
5.725,0.0443143,-0.0205097,-0.0648239,-0.0137436,0.0630109,-0.0492673
5.73,0.0482518,-0.0160692,-0.064321,-0.0185806,0.0649939,-0.0464133
5.735,0.0528268,-0.0101624,-0.0629892,-0.0246323,0.0668664,-0.0422341
5.74,0.0583669,-0.00308746,-0.0614544,-0.0319156,0.0691789,-0.0372632
5.745,0.0647728,0.00363247,-0.0611404,-0.0394938,0.072696,-0.0332022
5.75,0.0718767,0.00943411,-0.0624426,-0.0469448,0.0775492,-0.0306044
5.755,0.0791981,0.0150849,-0.0641133,-0.0544343,0.0827408,-0.0283066
5.76,0.0860986,0.0209018,-0.0651968,-0.0617767,0.0873504,-0.0255737
5.765,0.0922729,0.0267396,-0.0655333,-0.0687119,0.0911094,-0.0223975
5.77,0.0977927,0.0319937,-0.065799,-0.0749322,0.0944497,-0.0195175
5.775,0.102453,0.0357965,-0.0666563,-0.0798182,0.0976352,-0.0178169
5.78,0.106124,0.0389119,-0.0672117,-0.0837362,0.100075,-0.0163389
5.785,0.108767,0.0419491,-0.0668177,-0.0870158,0.101374,-0.0143579
5.79,0.110378,0.0444417,-0.0659359,-0.089385,0.101795,-0.0124097
5.795,0.111021,0.0463376,-0.0646835,-0.0908511,0.101443,-0.010592
5.8,0.110803,0.0476118,-0.0631911,-0.0914607,0.100455,-0.00899476
5.805,0.109241,0.04847,-0.0607708,-0.0910543,0.0981562,-0.00710189
5.81,0.10565,0.0486978,-0.056952,-0.0891126,0.0938782,-0.00476558
5.815,0.0997319,0.048562,-0.0511699,-0.0856175,0.0871232,-0.00150568
5.82,0.0912145,0.0481658,-0.0430487,-0.0804713,0.0775169,0.00295439
5.825,0.0799351,0.0457914,-0.0341436,-0.0725882,0.0658633,0.00672485
5.83,0.0663754,0.0390068,-0.0273685,-0.0608424,0.054123,0.00671937
5.835,0.0516535,0.0281322,-0.0235213,-0.0460643,0.0434021,0.00266212
5.84,0.0367883,0.0145975,-0.0221908,-0.0296675,0.0340516,-0.004384
5.845,0.0227056,-0.000451444,-0.0231571,-0.0128484,0.0264788,-0.0136304
5.85,0.0098142,-0.0156092,-0.0254234,0.00334572,0.0203444,-0.0236901
5.855,-0.00178933,-0.0304336,-0.0286442,0.0186039,0.0155047,-0.0341086
5.86,-0.0119106,-0.0435311,-0.0316205,0.0320093,0.0113796,-0.0433888
5.865,-0.0201297,-0.0530024,-0.0328728,0.0422228,0.00735725,-0.0495801
5.87,-0.025993,-0.0592226,-0.0332296,0.0491992,0.00417803,-0.0533773
5.875,-0.0301275,-0.0647912,-0.0346638,0.0548013,0.00261901,-0.0574203
5.88,-0.0333072,-0.0708175,-0.0375102,0.0601164,0.0024266,-0.062543
5.885,-0.0355406,-0.074842,-0.0393014,0.0637294,0.00217133,-0.0659007
5.89,-0.0367938,-0.0759682,-0.0391744,0.0651032,0.00137441,-0.0664776
5.895,-0.0374501,-0.0756497,-0.0381996,0.0652982,0.000432706,-0.0657309
5.9,-0.0379232,-0.0744535,-0.0365302,0.0648807,-0.000804269,-0.0640764
5.905,-0.0381679,-0.0722903,-0.0341223,0.063773,-0.00233573,-0.0614373
5.91,-0.0381732,-0.0700428,-0.0318696,0.0624785,-0.00363941,-0.0588391
5.915,-0.0379963,-0.0680334,-0.0300371,0.0612162,-0.00459527,-0.056621
5.92,-0.037789,-0.0666965,-0.0289075,0.0603247,-0.0051277,-0.055197
5.925,-0.0377092,-0.0672523,-0.0295431,0.0605995,-0.00471466,-0.0558848
5.93,-0.037834,-0.0683774,-0.0305435,0.0613211,-0.00420917,-0.057112
5.935,-0.0378797,-0.0669038,-0.0290241,0.0604968,-0.00511277,-0.055384
5.94,-0.0372493,-0.0619403,-0.0246911,0.0572671,-0.00725045,-0.0500167
5.945,-0.0359595,-0.0554811,-0.0195216,0.0527933,-0.00949045,-0.0433028
5.95,-0.034593,-0.0500236,-0.0154306,0.0488534,-0.0110634,-0.03779
5.955,-0.0337833,-0.0477828,-0.0139995,0.0470921,-0.0114222,-0.03567
5.96,-0.0337973,-0.0483114,-0.0145141,0.0474054,-0.0111331,-0.0362723
5.965,-0.0342805,-0.0486083,-0.0143279,0.0478559,-0.0115196,-0.0363362
5.97,-0.0346896,-0.0472683,-0.0125787,0.0473184,-0.0127658,-0.0345527
5.975,-0.0345683,-0.0450581,-0.0104898,0.0459723,-0.0139017,-0.0320706
5.98,-0.0339796,-0.0434616,-0.00948191,0.0447107,-0.0141438,-0.0305669
5.985,-0.0334263,-0.0440632,-0.0106369,0.0447385,-0.0131575,-0.0315811
5.99,-0.0332268,-0.0469966,-0.0137698,0.046317,-0.0112335,-0.0350835
5.995,-0.0334881,-0.051574,-0.0180859,0.0491106,-0.00889245,-0.0402181
6,-0.0342346,-0.0567992,-0.0225646,0.0525583,-0.00673763,-0.0458207
6.005,-0.0355773,-0.0614079,-0.0258307,0.0559944,-0.00562721,-0.0503672
6.01,-0.0371505,-0.0639537,-0.0268032,0.0583725,-0.00597403,-0.0523985
6.015,-0.0384079,-0.0642105,-0.0258026,0.0592468,-0.00727768,-0.0519691
6.02,-0.0390661,-0.0626128,-0.0235467,0.0587043,-0.00896011,-0.0497442
6.025,-0.0394891,-0.0618088,-0.0223197,0.0584843,-0.00991276,-0.0485716
6.03,-0.0400371,-0.0639079,-0.0238708,0.0600127,-0.00933364,-0.050679
6.035,-0.040758,-0.0672402,-0.0264822,0.0623527,-0.00824212,-0.0541106
6.04,-0.0416395,-0.0700226,-0.028383,0.0644681,-0.00765362,-0.0568145
6.045,-0.0424837,-0.0716729,-0.0291891,0.0659083,-0.00767565,-0.0582327
6.05,-0.0433236,-0.0723058,-0.0289823,0.0667586,-0.00827995,-0.0584787
6.055,-0.0441219,-0.0725764,-0.0284545,0.0673757,-0.00904553,-0.0583302
6.06,-0.0446118,-0.0733809,-0.0287691,0.0681231,-0.00914675,-0.0589763
6.065,-0.0447172,-0.0758565,-0.0311393,0.0696132,-0.0078392,-0.061774
6.07,-0.0443715,-0.0802059,-0.0358344,0.0719248,-0.00492887,-0.0669959
6.075,-0.0438617,-0.0847796,-0.0409178,0.0742711,-0.00169968,-0.0725714
6.08,-0.0437173,-0.0883393,-0.044622,0.0762429,0.000522321,-0.0767652
6.085,-0.0438242,-0.0913242,-0.0475,0.0780279,0.00212223,-0.0801501
6.09,-0.0439059,-0.0947991,-0.0508933,0.0800813,0.0040342,-0.0841155
6.095,-0.0441607,-0.0984904,-0.0543297,0.0823596,0.00587107,-0.0882307
6.1,-0.0447608,-0.101591,-0.0568306,0.0844965,0.0069685,-0.091465
6.105,-0.0454798,-0.103885,-0.0584052,0.0862358,0.00746246,-0.0936982
6.11,-0.0460827,-0.104439,-0.058356,0.0869035,0.007086,-0.0939895
6.115,-0.0462772,-0.103493,-0.0572157,0.0864698,0.00631533,-0.0927851
6.12,-0.0460884,-0.103055,-0.056967,0.0861082,0.00628075,-0.092389
6.125,-0.0459778,-0.103819,-0.0578409,0.086485,0.00684915,-0.0933341
6.13,-0.046146,-0.105074,-0.0589277,0.0873067,0.00737952,-0.0946862
6.135,-0.046422,-0.105945,-0.0595228,0.0879689,0.00756378,-0.0955327
6.14,-0.0467361,-0.105985,-0.0592492,0.0881737,0.00722446,-0.0953981
6.145,-0.046732,-0.105283,-0.0585506,0.0877656,0.00682345,-0.094589
6.15,-0.0462492,-0.103754,-0.0575045,0.0866041,0.00649827,-0.0931024
6.155,-0.0454271,-0.101665,-0.0562377,0.0849235,0.0062415,-0.091165
6.16,-0.0444348,-0.100322,-0.0558868,0.0835751,0.00661182,-0.0901869
6.165,-0.0434069,-0.100493,-0.0570858,0.0830804,0.00789748,-0.0909779
6.17,-0.0426277,-0.101488,-0.0588601,0.0832051,0.00937176,-0.0925768
6.175,-0.042059,-0.102606,-0.0605466,0.0835221,0.0106739,-0.0941959
6.18,-0.0416038,-0.10297,-0.0613663,0.0834697,0.0114099,-0.0948796
6.185,-0.0413427,-0.101969,-0.060626,0.0827409,0.0111332,-0.0938741
6.19,-0.0415674,-0.0995053,-0.0579379,0.0814483,0.00945153,-0.0908999
6.195,-0.0422495,-0.0952335,-0.052984,0.0793758,0.0061976,-0.0855734
6.2,-0.0432268,-0.0877664,-0.0445396,0.0756289,0.000757936,-0.0763868
6.205,-0.0443696,-0.0761709,-0.0318013,0.0695941,-0.00725628,-0.0623378
6.21,-0.0456952,-0.0623067,-0.0166115,0.0623549,-0.0167915,-0.0455634
6.215,-0.0473026,-0.0482408,-0.000938162,0.0551619,-0.0267685,-0.0283934
6.22,-0.048555,-0.0332798,0.0152752,0.0472473,-0.0368523,-0.010395
6.225,-0.0484755,-0.0177668,0.0307087,0.038245,-0.045717,0.00747197
6.23,-0.0469328,-0.0031478,0.043785,0.0289141,-0.052376,0.0234619
6.235,-0.0447983,0.0113318,0.0561301,0.0193219,-0.058271,0.0389492
6.24,-0.0432501,0.0274706,0.0707207,0.00911032,-0.0658011,0.0566907
6.245,-0.0427595,0.0440148,0.0867743,-0.000724735,-0.0747864,0.0755111
6.25,-0.042146,0.0573223,0.0994683,-0.00876203,-0.081761,0.090523
6.255,-0.0400031,0.0654351,0.105438,-0.0146831,-0.0839706,0.0986537
6.26,-0.0361694,0.0659231,0.102092,-0.0171783,-0.0798254,0.0970037
6.265,-0.0321091,0.0555753,0.0876844,-0.0135482,-0.0691628,0.082711
6.27,-0.0296414,0.0346886,0.0643299,-0.00291399,-0.0542543,0.0571683
6.275,-0.0295872,0.00742315,0.0370104,0.0127964,-0.0384501,0.0256537
6.28,-0.0319097,-0.0212617,0.010648,0.0306985,-0.0245707,-0.00612783
6.285,-0.036054,-0.048741,-0.0126869,0.0489564,-0.013491,-0.0354654
6.29,-0.0411798,-0.073888,-0.0327082,0.0664343,-0.00489105,-0.0615433
6.295,-0.0462713,-0.0943734,-0.0481021,0.0812012,0.00105705,-0.0822582
6.3,-0.050294,-0.107749,-0.0574551,0.0912462,0.00413441,-0.0953806
6.305,-0.0528767,-0.11501,-0.0621336,0.0969295,0.00534449,-0.102274
6.31,-0.0544663,-0.119212,-0.0647456,0.100273,0.00593475,-0.106208
6.315,-0.0553043,-0.122764,-0.0674597,0.102808,0.0070179,-0.109826
6.32,-0.0544658,-0.126012,-0.0715461,0.104199,0.0098613,-0.11406
6.325,-0.0493916,-0.126649,-0.0772578,0.101637,0.0160886,-0.117726
6.33,-0.0369653,-0.118366,-0.0814011,0.0896807,0.025655,-0.115336
6.335,-0.0143655,-0.0902226,-0.0758571,0.0603839,0.0355022,-0.0958861
6.34,0.0155214,-0.0278967,-0.0434181,0.00714492,0.0340287,-0.0411736
6.345,0.0415587,0.0842932,0.0427346,-0.0726606,-0.00067892,0.0733395
6.35,0.0507455,0.257225,0.20648,-0.177807,-0.0899132,0.26772
6.355,0.0358075,0.481935,0.446128,-0.298919,-0.236898,0.535817
6.36,-0.00557831,0.709424,0.715003,-0.406366,-0.416028,0.822393
6.365,-0.0704558,0.859875,0.930331,-0.455771,-0.577804,1.03358
6.37,-0.148665,0.874981,1.02365,-0.419338,-0.676834,1.09617
6.375,-0.222797,0.759609,0.982406,-0.309929,-0.695824,1.00575
6.38,-0.273781,0.573671,0.847452,-0.173142,-0.647344,0.820485
6.385,-0.289538,0.384801,0.674339,-0.0550003,-0.556495,0.611495
6.39,-0.270474,0.231332,0.501806,0.022599,-0.445876,0.423277
6.395,-0.227693,0.121238,0.348932,0.0614618,-0.332915,0.271453
6.4,-0.175766,0.0476068,0.223373,0.0739928,-0.230443,0.15645
6.405,-0.12672,-0.000135643,0.126584,0.07324,-0.146245,0.0730051
6.41,-0.0876381,-0.0316039,0.0560342,0.0688444,-0.0829492,0.0141048
6.415,-0.0604112,-0.0537562,0.00665492,0.0659146,-0.0387206,-0.027194
6.42,-0.0435584,-0.0707872,-0.0272288,0.0660174,-0.00942786,-0.0565895
6.425,-0.0343553,-0.083479,-0.0491236,0.0680316,0.00852648,-0.0765581
6.43,-0.0298181,-0.0910055,-0.0611874,0.0697575,0.0181111,-0.0878686
6.435,-0.0273773,-0.0947024,-0.0673251,0.0704827,0.0230638,-0.0935465
6.44,-0.0254861,-0.0965813,-0.0710952,0.0704756,0.0263325,-0.096808
6.445,-0.0234002,-0.0976604,-0.0742602,0.0698943,0.029364,-0.0992584
6.45,-0.0210526,-0.0982662,-0.0772136,0.0688887,0.0324245,-0.101313
6.455,-0.018831,-0.0987868,-0.0799558,0.0679067,0.0352904,-0.103197
6.46,-0.016748,-0.0985522,-0.0818042,0.0665686,0.0375602,-0.104129
6.465,-0.0144397,-0.0960121,-0.0815724,0.0637694,0.038759,-0.102528
6.47,-0.0117502,-0.0909471,-0.0791969,0.0592923,0.0389403,-0.0982326
6.475,-0.00902735,-0.0855624,-0.076535,0.0546114,0.0389756,-0.093587
6.48,-0.00681941,-0.0812845,-0.0744651,0.0508668,0.0390552,-0.089922
6.485,-0.00508743,-0.0783684,-0.073281,0.0481832,0.0393716,-0.0875548
6.49,-0.00337044,-0.0769151,-0.0735447,0.0463529,0.0405151,-0.086868
6.495,-0.00137987,-0.075208,-0.0738281,0.044218,0.041828,-0.086046
6.5,0.00105653,-0.0720664,-0.0731229,0.0409976,0.0428275,-0.0838251
6.505,0.00406929,-0.0683156,-0.0723849,0.0370926,0.0441408,-0.0812334
6.51,0.00762593,-0.0648282,-0.0724542,0.0330258,0.0462342,-0.07926
6.515,0.0113324,-0.0612907,-0.0726231,0.0288434,0.0484717,-0.0773151
6.52,0.0148489,-0.0572277,-0.0720766,0.0244674,0.0501864,-0.0746538
6.525,0.018406,-0.0528449,-0.0712509,0.0198833,0.0517634,-0.0716467
6.53,0.022354,-0.0487622,-0.0711162,0.0152467,0.053965,-0.0692118
6.535,0.0270917,-0.0439546,-0.0710463,0.00973579,0.05666,-0.0663958
6.54,0.032803,-0.0368639,-0.069667,0.00234455,0.0591611,-0.0615056
6.545,0.0393912,-0.0277798,-0.067171,-0.00670385,0.0615237,-0.0548199
6.55,0.0467029,-0.018332,-0.0650349,-0.01638,0.0645119,-0.0481319
6.555,0.0543331,-0.0109718,-0.0653049,-0.0250346,0.069073,-0.0440384
6.56,0.0619503,-0.00541752,-0.0673678,-0.0326392,0.0746618,-0.0420226
6.565,0.069354,-0.000421527,-0.0697755,-0.0397981,0.0803264,-0.0405283
6.57,0.0765446,0.00535262,-0.071192,-0.0472834,0.0852958,-0.0380124
6.575,0.0833367,0.0117111,-0.0716256,-0.0548758,0.0894675,-0.0345916
6.58,0.0891949,0.016638,-0.0725569,-0.0611027,0.0933874,-0.0322848
6.585,0.0933556,0.0190788,-0.0742768,-0.064914,0.0967826,-0.0318686
6.59,0.0954747,0.01922,-0.0762547,-0.066219,0.099148,-0.032929
6.595,0.0955845,0.0182749,-0.0773095,-0.0657367,0.0998204,-0.0340836
6.6,0.0940406,0.0184493,-0.0755913,-0.064946,0.0979369,-0.0329909
6.605,0.0910752,0.020038,-0.0710372,-0.0641512,0.0935956,-0.0294444
6.61,0.0864268,0.0221113,-0.0643155,-0.0626645,0.0870311,-0.0243666
6.615,0.0798414,0.0231827,-0.0566586,-0.059481,0.0788083,-0.0193273
6.62,0.0711905,0.0223915,-0.048799,-0.0540296,0.0692759,-0.0152464
6.625,0.0603023,0.0195179,-0.0407843,-0.0460842,0.0583623,-0.0122782
6.63,0.0471665,0.0143015,-0.032865,-0.0354885,0.0462062,-0.0107176
6.635,0.0324754,0.00637122,-0.0261042,-0.0224281,0.0338209,-0.0113928
6.64,0.0175667,-0.00366831,-0.021235,-0.00802423,0.0224021,-0.0143779
6.645,0.00360995,-0.0147289,-0.0183389,0.00641955,0.0126722,-0.0190917
6.65,-0.00884047,-0.0263952,-0.0175547,0.0203433,0.00503118,-0.0253745
6.655,-0.019679,-0.0383313,-0.0186523,0.0334923,-0.000592772,-0.0328995
6.66,-0.0289417,-0.0497939,-0.0208523,0.045458,-0.00467043,-0.0407876
6.665,-0.0364623,-0.0596937,-0.0232314,0.0555156,-0.00763883,-0.0478768
6.67,-0.0420923,-0.0670753,-0.024983,0.0630279,-0.00987802,-0.0531499
6.675,-0.0461745,-0.0730664,-0.0268919,0.0688437,-0.0111328,-0.0577109
6.68,-0.0492282,-0.0789978,-0.0297696,0.0740313,-0.0112344,-0.0627969
6.685,-0.0511882,-0.0838741,-0.0326859,0.0779783,-0.0106823,-0.0672959
6.69,-0.0521981,-0.0868703,-0.0346722,0.0802912,-0.0101186,-0.0701726
6.695,-0.0529577,-0.0886141,-0.0356564,0.0817365,-0.00998891,-0.0717476
6.7,-0.0538422,-0.0902238,-0.0363817,0.0831765,-0.0100808,-0.0730957
6.705,-0.0546732,-0.0921061,-0.0374329,0.084743,-0.00995366,-0.0747894
6.71,-0.0552581,-0.0929951,-0.037737,0.085594,-0.0101158,-0.0754782
6.715,-0.0557065,-0.0913117,-0.0356052,0.0848809,-0.0116055,-0.0732755
6.72,-0.0562013,-0.0880383,-0.031837,0.0832767,-0.0140667,-0.06921
6.725,-0.0565977,-0.0854593,-0.0288617,0.0820166,-0.0160134,-0.0660032
6.73,-0.0566784,-0.0840559,-0.0273775,0.0812529,-0.0169168,-0.0643361
6.735,-0.0566816,-0.0825747,-0.0258931,0.0803996,-0.0177757,-0.0626239
6.74,-0.0571606,-0.0804997,-0.023339,0.0794782,-0.0195269,-0.0599513
6.745,-0.0580914,-0.0773922,-0.0193008,0.0782215,-0.0223957,-0.0558257
6.75,-0.0588093,-0.0738524,-0.0150432,0.0765922,-0.0252684,-0.0513239
6.755,-0.0585869,-0.0709684,-0.0123815,0.0747987,-0.0266767,-0.048122
6.76,-0.0572066,-0.0684908,-0.0112842,0.0725714,-0.0265133,-0.0460581
6.765,-0.0552142,-0.0673076,-0.0120934,0.070738,-0.0248958,-0.0458422
6.77,-0.0530906,-0.068573,-0.0154824,0.0702424,-0.0217131,-0.0485294
6.775,-0.0510725,-0.0709093,-0.0198368,0.0704262,-0.0180339,-0.0523922
6.78,-0.0492508,-0.0722596,-0.0230087,0.070154,-0.0151509,-0.0550032
6.785,-0.0475172,-0.0722389,-0.0247216,0.0691412,-0.013161,-0.0559801
6.79,-0.045965,-0.0720354,-0.0260705,0.0681275,-0.0114861,-0.0566414
6.795,-0.0448378,-0.0728103,-0.0279725,0.0679241,-0.00973723,-0.0581869
6.8,-0.044283,-0.0740576,-0.0297746,0.068324,-0.00837642,-0.0599475
6.805,-0.0440665,-0.0752907,-0.0312242,0.0689109,-0.0074145,-0.0614964
6.81,-0.0438148,-0.0772761,-0.0334612,0.0699118,-0.00597766,-0.0639342
6.815,-0.0433925,-0.0807095,-0.037317,0.0716503,-0.00350767,-0.0681426
6.82,-0.043102,-0.0857007,-0.0425987,0.0743642,-0.000290577,-0.0740737
6.825,-0.0430678,-0.0913891,-0.0483213,0.0776287,0.00303309,-0.0806618
6.83,-0.0433998,-0.0971659,-0.0537661,0.0811556,0.00598497,-0.0871406
6.835,-0.0441591,-0.101568,-0.0574092,0.0841357,0.00764994,-0.0917857
6.84,-0.0451474,-0.104003,-0.0588559,0.0861122,0.00791458,-0.0940267
6.845,-0.0465277,-0.105716,-0.0591879,0.0878977,0.00730938,-0.0952071
6.85,-0.0483636,-0.107168,-0.0588045,0.0897962,0.00602805,-0.0958242
6.855,-0.0502756,-0.108474,-0.0581983,0.091654,0.0045742,-0.0962282
6.86,-0.0518156,-0.109922,-0.0581065,0.0933792,0.00363206,-0.0970113
6.865,-0.0529622,-0.111284,-0.0583222,0.0948278,0.00309457,-0.0979224
6.87,-0.0539543,-0.113574,-0.0596193,0.0967222,0.00327067,-0.0999929
6.875,-0.0548527,-0.117483,-0.06263,0.0994978,0.00449021,-0.103988
6.88,-0.0557365,-0.121784,-0.0660471,0.102491,0.00595282,-0.108444
6.885,-0.0564056,-0.125269,-0.0688636,0.10489,0.00719262,-0.112083
6.89,-0.056771,-0.127607,-0.0708362,0.106451,0.00812054,-0.114571
6.895,-0.0570702,-0.128357,-0.0712865,0.107056,0.00820783,-0.115264
6.9,-0.0576678,-0.127381,-0.0697133,0.106838,0.00695447,-0.113792
6.905,-0.0587409,-0.126108,-0.0673671,0.106722,0.00498035,-0.111703
6.91,-0.0603124,-0.126503,-0.0661909,0.107858,0.00339391,-0.111252
6.915,-0.062226,-0.129039,-0.066813,0.110427,0.00264828,-0.113075
6.92,-0.063978,-0.133593,-0.0696147,0.114067,0.00325434,-0.117322
6.925,-0.0652183,-0.137809,-0.0725903,0.117218,0.00425622,-0.121474
6.93,-0.0656971,-0.139673,-0.073976,0.11857,0.00477984,-0.12335
6.935,-0.0653546,-0.138869,-0.0735143,0.117908,0.00471103,-0.122619
6.94,-0.0644397,-0.136794,-0.0723541,0.116182,0.00456938,-0.120752
6.945,-0.0634247,-0.135546,-0.0721211,0.114876,0.0050209,-0.119897
6.95,-0.0627551,-0.136087,-0.0733314,0.114801,0.00610621,-0.120907
6.955,-0.0624595,-0.137837,-0.0753776,0.115641,0.00745831,-0.1231
6.96,-0.0623917,-0.140839,-0.0784478,0.117335,0.00927001,-0.126606
6.965,-0.0626778,-0.14398,-0.081302,0.119314,0.0107527,-0.130066
6.97,-0.0633866,-0.145412,-0.0820258,0.12055,0.0107613,-0.131311
6.975,-0.0642942,-0.146191,-0.0818971,0.121524,0.010163,-0.131687
6.98,-0.0649238,-0.146405,-0.0814815,0.122011,0.0095596,-0.13157
6.985,-0.0645419,-0.143967,-0.0794251,0.120383,0.0085928,-0.128975
6.99,-0.0630408,-0.137153,-0.0741122,0.115582,0.00639204,-0.121974
6.995,-0.0613242,-0.125658,-0.0643342,0.107954,0.00173785,-0.109692
7,-0.0605379,-0.111532,-0.0509938,0.0993444,-0.00551031,-0.0938341
7.005,-0.0610803,-0.0973828,-0.0363025,0.0914887,-0.0143055,-0.0771832
7.01,-0.0625337,-0.086963,-0.0244293,0.0863119,-0.0219996,-0.0643124
7.015,-0.0635623,-0.0810313,-0.017469,0.0834811,-0.0266119,-0.0568692
7.02,-0.0627929,-0.0750033,-0.0122104,0.0795566,-0.0292038,-0.0503528
7.025,-0.0601491,-0.065067,-0.00491794,0.0722935,-0.0318877,-0.0404058
7.03,-0.0569079,-0.0512959,0.00561205,0.0624715,-0.0360959,-0.0263756
7.035,-0.0545318,-0.0355017,0.0190301,0.0519809,-0.042471,-0.0095099
7.04,-0.0534056,-0.0197779,0.0336277,0.0422525,-0.0502487,0.00799624
7.045,-0.0529662,-0.00680835,0.0461578,0.0345108,-0.0572292,0.0227184
7.05,-0.0522151,0.000125512,0.0523407,0.030074,-0.0603653,0.0302913
7.055,-0.0506518,-0.00169456,0.0489573,0.0302222,-0.0575093,0.0272871
7.06,-0.0486126,-0.0133536,0.035259,0.0357762,-0.0484232,0.0126471
7.065,-0.0468966,-0.0341424,0.0127542,0.0467878,-0.0344394,-0.0123485
7.07,-0.0463576,-0.0623091,-0.0159515,0.0627387,-0.017555,-0.0451837
7.075,-0.0473438,-0.0933322,-0.0459884,0.0812193,-0.000782584,-0.0804367
7.08,-0.0497665,-0.122837,-0.0730707,0.0996527,0.0134547,-0.113107
7.085,-0.0534078,-0.149631,-0.0962234,0.117225,0.0247196,-0.141944
7.09,-0.057807,-0.173752,-0.115944,0.13369,0.0335657,-0.167256
7.095,-0.0621474,-0.19303,-0.130883,0.147327,0.0396842,-0.187011
7.1,-0.0656435,-0.204616,-0.138972,0.156034,0.0423363,-0.198371
7.105,-0.0677592,-0.209051,-0.141292,0.159817,0.0424543,-0.202271
7.11,-0.0685495,-0.211034,-0.142484,0.161417,0.0426861,-0.204103
7.115,-0.0681314,-0.213351,-0.145219,0.162514,0.0445065,-0.20702
7.12,-0.0652817,-0.216181,-0.1509,0.162503,0.0494315,-0.211934
7.125,-0.0570353,-0.215663,-0.158627,0.157442,0.0586542,-0.216097
7.13,-0.0391998,-0.201985,-0.162786,0.139248,0.0713523,-0.210601
7.135,-0.00875295,-0.161355,-0.152602,0.0982118,0.0830512,-0.181263
7.14,0.0285767,-0.0758067,-0.104383,0.0272683,0.0767645,-0.104033
7.145,0.0569439,0.0699545,0.0130106,-0.0732648,0.0253649,0.0478999
7.15,0.0614055,0.279679,0.218274,-0.196925,-0.0905679,0.287493
7.155,0.0341069,0.52604,0.491933,-0.323401,-0.264326,0.587726
7.16,-0.0246017,0.737464,0.762066,-0.411571,-0.454182,0.865753
7.165,-0.104164,0.830703,0.934867,-0.419468,-0.599884,1.01935
7.17,-0.185926,0.769555,0.955481,-0.336958,-0.658992,0.99595
7.175,-0.248934,0.589931,0.838866,-0.196875,-0.628041,0.824916
7.18,-0.279031,0.369006,0.648037,-0.0519473,-0.535242,0.58719
7.185,-0.273389,0.172343,0.445732,0.0583391,-0.415185,0.356845
7.19,-0.240172,0.0283001,0.268472,0.122324,-0.293665,0.171341
7.195,-0.19331,-0.064526,0.128784,0.148862,-0.185961,0.0370993
7.2,-0.145893,-0.120566,0.025327,0.15384,-0.0988537,-0.0549861
7.205,-0.106422,-0.154659,-0.0482367,0.150735,-0.0335934,-0.117142
7.21,-0.0780926,-0.177734,-0.0996418,0.147702,0.0124415,-0.160143
7.215,-0.05998,-0.195427,-0.135448,0.14746,0.0435712,-0.191031
7.22,-0.0490897,-0.209198,-0.160109,0.149123,0.0640969,-0.213219
7.225,-0.0422778,-0.219086,-0.176808,0.150898,0.0776709,-0.228569
7.23,-0.037496,-0.226362,-0.188866,0.152338,0.0873934,-0.239732
7.235,-0.0338963,-0.232845,-0.198949,0.154003,0.0952931,-0.249296
7.24,-0.0310273,-0.23772,-0.206692,0.155161,0.10142,-0.256581
7.245,-0.0287237,-0.239515,-0.210791,0.154868,0.105117,-0.259984
7.25,-0.0271131,-0.239192,-0.212079,0.153751,0.10679,-0.260542
7.255,-0.026079,-0.23929,-0.213211,0.153211,0.108041,-0.261251
7.26,-0.025124,-0.240746,-0.215622,0.1535,0.109984,-0.263484
7.265,-0.0239459,-0.241744,-0.217798,0.153396,0.111921,-0.265317
7.27,-0.0227992,-0.240925,-0.218125,0.152261,0.112772,-0.265032
7.275,-0.0217711,-0.238022,-0.216251,0.149992,0.112283,-0.262275
7.28,-0.0206641,-0.233211,-0.212547,0.146575,0.110784,-0.257359
7.285,-0.0193487,-0.22716,-0.207812,0.142322,0.108809,-0.251131
7.29,-0.0175795,-0.220111,-0.202531,0.13723,0.106782,-0.244012
7.295,-0.0152518,-0.213272,-0.198021,0.131938,0.105522,-0.23746
7.3,-0.0122264,-0.207946,-0.195719,0.127117,0.10594,-0.233056
7.305,-0.00847378,-0.204047,-0.195574,0.122699,0.108022,-0.230721
7.31,-0.00396034,-0.200624,-0.196663,0.118117,0.111257,-0.229374
7.315,0.00123462,-0.196909,-0.198143,0.112973,0.115111,-0.228083
7.32,0.00675807,-0.192859,-0.199617,0.107446,0.119151,-0.226597
7.325,0.0119908,-0.189177,-0.201168,0.102299,0.123067,-0.225366
7.33,0.0168126,-0.185915,-0.202727,0.097631,0.126751,-0.224382
7.335,0.0217498,-0.182307,-0.204057,0.0926979,0.13037,-0.223067
7.34,0.0272237,-0.177873,-0.205096,0.0869771,0.13413,-0.221107
7.345,0.0335783,-0.17229,-0.205868,0.0800853,0.138245,-0.21833
7.35,0.0408493,-0.164563,-0.205413,0.0714264,0.142179,-0.213606
7.355,0.0484895,-0.155235,-0.203725,0.0616297,0.145616,-0.207246
7.36,0.0556902,-0.146578,-0.202268,0.052474,0.148932,-0.201406
7.365,0.0620075,-0.140408,-0.202415,0.0452643,0.152664,-0.197929
7.37,0.0677357,-0.136667,-0.204403,0.0397974,0.157119,-0.196917
7.375,0.0731929,-0.134347,-0.20754,0.0353076,0.162081,-0.197389
7.38,0.0780935,-0.131874,-0.209968,0.0310503,0.166312,-0.197362
7.385,0.081843,-0.127578,-0.209421,0.0264049,0.168161,-0.194566
7.39,0.0840804,-0.121417,-0.205497,0.0215563,0.167188,-0.188744
7.395,0.0845871,-0.115068,-0.199655,0.0175984,0.164107,-0.181706
7.4,0.0831473,-0.110618,-0.193765,0.0158603,0.159876,-0.175736
7.405,0.0796411,-0.108778,-0.18842,0.0168224,0.154765,-0.171587
7.41,0.0739711,-0.109358,-0.18333,0.0204309,0.148553,-0.168983
7.415,0.0659785,-0.112849,-0.178828,0.0270608,0.141339,-0.1684
7.42,0.0555174,-0.119073,-0.174591,0.0366941,0.132853,-0.169547
7.425,0.0428638,-0.126956,-0.16982,0.0485505,0.122793,-0.171343
7.43,0.0287178,-0.136333,-0.165051,0.0621318,0.111873,-0.174004
7.435,0.0138033,-0.148026,-0.161829,0.0774935,0.101402,-0.178895
7.44,-0.000907366,-0.160739,-0.159831,0.0933263,0.0917547,-0.185081
7.445,-0.0140428,-0.170952,-0.156909,0.106807,0.0824838,-0.189291
7.45,-0.0248007,-0.176529,-0.151729,0.116238,0.0732819,-0.18952
7.455,-0.0333092,-0.179612,-0.146302,0.12293,0.0652367,-0.188167
7.46,-0.0400954,-0.183821,-0.143725,0.129278,0.0598307,-0.189109
7.465,-0.0456291,-0.191173,-0.145544,0.136718,0.0576858,-0.194403
7.47,-0.0501863,-0.201337,-0.151151,0.145217,0.0582919,-0.203509
7.475,-0.053943,-0.212366,-0.158423,0.153754,0.0603217,-0.214075
7.48,-0.0571617,-0.221366,-0.164204,0.160808,0.0618011,-0.222609
7.485,-0.0600739,-0.225573,-0.165499,0.164918,0.0608675,-0.225786
7.49,-0.0626343,-0.224648,-0.162013,0.165862,0.0573765,-0.223239
7.495,-0.0645412,-0.22025,-0.155708,0.164424,0.0526354,-0.217059
7.5,-0.06578,-0.214327,-0.148547,0.16172,0.0477856,-0.209506
7.505,-0.0665168,-0.208356,-0.14184,0.158698,0.0434876,-0.202186
7.51,-0.0669514,-0.204345,-0.137393,0.156633,0.0406697,-0.197303
7.515,-0.0671283,-0.20348,-0.136351,0.156236,0.039966,-0.196202
7.52,-0.0670877,-0.204563,-0.137476,0.156838,0.0406385,-0.197476
7.525,-0.0669911,-0.206027,-0.139036,0.157627,0.041595,-0.199222
7.53,-0.0669498,-0.207043,-0.140093,0.15819,0.0422291,-0.200419
7.535,-0.0669865,-0.206555,-0.139568,0.157929,0.041905,-0.199834
7.54,-0.0671043,-0.203821,-0.136716,0.156419,0.0401905,-0.196609
7.545,-0.0674648,-0.199187,-0.131722,0.153952,0.0370992,-0.191051
7.55,-0.06779,-0.193271,-0.125481,0.150723,0.0333077,-0.184031
7.555,-0.0674554,-0.186969,-0.119513,0.146892,0.0300555,-0.176947
7.56,-0.0663179,-0.182476,-0.116158,0.143641,0.0287752,-0.172416
7.565,-0.0645391,-0.180826,-0.116287,0.141662,0.0298769,-0.171539
7.57,-0.0624448,-0.179455,-0.11701,0.139661,0.0315031,-0.171164
7.575,-0.0606218,-0.17648,-0.115858,0.136891,0.0318908,-0.168782
7.58,-0.0594821,-0.173183,-0.113701,0.134329,0.0313034,-0.165633
7.585,-0.0589448,-0.171318,-0.112373,0.132942,0.0308471,-0.163789
7.59,-0.0587443,-0.171497,-0.112752,0.13293,0.0311814,-0.164111
7.595,-0.0588308,-0.173911,-0.11508,0.134373,0.0324754,-0.166849
7.6,-0.059283,-0.177246,-0.117963,0.13656,0.0338789,-0.170439
7.605,-0.0601635,-0.180056,-0.119892,0.138691,0.0344843,-0.173175
7.61,-0.0613558,-0.182039,-0.120683,0.140524,0.0342528,-0.174777
7.615,-0.0627458,-0.184338,-0.121592,0.142654,0.0339747,-0.176628
7.62,-0.06421,-0.186974,-0.122764,0.145021,0.0338058,-0.178827
7.625,-0.0656774,-0.189506,-0.123828,0.14733,0.0335734,-0.180903
7.63,-0.0674677,-0.19238,-0.124913,0.150023,0.0331658,-0.183189
7.635,-0.0695147,-0.195261,-0.125746,0.152868,0.0324654,-0.185334
7.64,-0.0714377,-0.197196,-0.125758,0.155095,0.0313618,-0.186457
7.645,-0.0732459,-0.198125,-0.124879,0.156676,0.0298104,-0.186486
7.65,-0.0749395,-0.198218,-0.123279,0.157708,0.0279087,-0.185616
7.655,-0.0766323,-0.197785,-0.121152,0.158435,0.0257036,-0.184138
7.66,-0.0782011,-0.196898,-0.118697,0.158828,0.0233802,-0.182208
7.665,-0.0794858,-0.196286,-0.1168,0.159217,0.0215433,-0.18076
7.67,-0.0805085,-0.19626,-0.115752,0.159792,0.0203477,-0.18014
7.675,-0.081092,-0.196835,-0.115743,0.160461,0.0200059,-0.180467
7.68,-0.0813866,-0.198881,-0.117494,0.161812,0.0208466,-0.182659
7.685,-0.0815622,-0.203124,-0.121562,0.164364,0.023094,-0.187458
7.69,-0.0813047,-0.208538,-0.127233,0.167341,0.0265169,-0.193858
7.695,-0.0803989,-0.213166,-0.132768,0.16949,0.030235,-0.199725
7.7,-0.079147,-0.215439,-0.136292,0.170079,0.0329924,-0.203071
7.705,-0.0778798,-0.213957,-0.136077,0.168492,0.0336001,-0.202092
7.71,-0.076694,-0.209465,-0.132771,0.165214,0.0323762,-0.19759
7.715,-0.075947,-0.20597,-0.130023,0.162765,0.0312207,-0.193985
7.72,-0.075807,-0.205579,-0.129772,0.162459,0.0311569,-0.193615
7.725,-0.0759374,-0.207553,-0.131615,0.163673,0.0321457,-0.195819
7.73,-0.0762639,-0.210038,-0.133774,0.165296,0.0332035,-0.1985
7.735,-0.0769409,-0.211228,-0.134288,0.166375,0.0331091,-0.199484
7.74,-0.0776954,-0.210396,-0.132701,0.16633,0.0317574,-0.198087
7.745,-0.0783421,-0.207772,-0.12943,0.165188,0.0294958,-0.194684
7.75,-0.0790431,-0.204481,-0.125438,0.163693,0.0267862,-0.190479
7.755,-0.0799207,-0.201631,-0.12171,0.162554,0.0241271,-0.186681
7.76,-0.0806701,-0.198602,-0.117932,0.161238,0.0215133,-0.182751
7.765,-0.0810814,-0.193531,-0.11245,0.158548,0.0181107,-0.176658
7.77,-0.0812115,-0.184708,-0.103497,0.153529,0.0128664,-0.166395
7.775,-0.0808928,-0.172259,-0.091366,0.146157,0.00604668,-0.152204
7.78,-0.0802921,-0.158231,-0.0779392,0.137711,-0.00135844,-0.136353
7.785,-0.0801641,-0.145512,-0.0653481,0.130294,-0.00855403,-0.12174
7.79,-0.0806461,-0.136147,-0.0555004,0.125165,-0.0145179,-0.110647
7.795,-0.0807318,-0.128441,-0.0477089,0.120766,-0.0190658,-0.1017
7.8,-0.0792539,-0.118481,-0.0392266,0.114162,-0.0231097,-0.0910522
7.805,-0.0764295,-0.104709,-0.0282797,0.10458,-0.0277993,-0.0767812
7.81,-0.0736587,-0.0886031,-0.0149444,0.0936819,-0.0338987,-0.0597831
7.815,-0.0718945,-0.0730425,-0.00114797,0.0836794,-0.0408455,-0.0428339
7.82,-0.070801,-0.0589391,0.0118619,0.0749054,-0.0477254,-0.02718
7.825,-0.0692623,-0.0465,0.0227624,0.0668354,-0.0531304,-0.0137049
7.83,-0.066486,-0.038966,0.0275199,0.0608827,-0.0542743,-0.00660842
7.835,-0.0626718,-0.0409658,0.021706,0.0598352,-0.0487156,-0.0111197
7.84,-0.0588303,-0.0541999,0.0046304,0.065258,-0.036639,-0.028619
7.845,-0.0562044,-0.0768927,-0.0206883,0.0768436,-0.0205052,-0.0563384
7.85,-0.0556354,-0.105856,-0.050221,0.0932373,-0.00312602,-0.0901113
7.855,-0.057426,-0.13663,-0.0792041,0.112038,0.0125736,-0.124612
7.86,-0.0610296,-0.165026,-0.103996,0.130513,0.0248069,-0.15532
7.865,-0.0654731,-0.18761,-0.122137,0.146118,0.0327151,-0.178833
7.87,-0.0697986,-0.203126,-0.133327,0.157573,0.0366782,-0.194251
7.875,-0.073192,-0.213089,-0.139897,0.165284,0.0385124,-0.203797
7.88,-0.0751545,-0.219668,-0.144513,0.170216,0.0400441,-0.21026
7.885,-0.0755727,-0.223857,-0.148284,0.172876,0.0419801,-0.214856
7.89,-0.0749162,-0.226503,-0.151587,0.174024,0.0442657,-0.21829
7.895,-0.0733242,-0.22876,-0.155436,0.174408,0.0474072,-0.221816
7.9,-0.0683147,-0.229503,-0.161188,0.171945,0.0536206,-0.225566
7.905,-0.0556997,-0.222372,-0.166672,0.160545,0.06407,-0.224615
7.91,-0.0318022,-0.195032,-0.163229,0.130962,0.0758795,-0.206842
7.915,0.00107011,-0.130767,-0.131837,0.0748803,0.0767338,-0.151614
7.92,0.0309342,-0.0121738,-0.043108,-0.0108313,0.0427482,-0.0319169
7.925,0.0431593,0.171207,0.128047,-0.123764,-0.0490101,0.172774
7.93,0.0285247,0.407342,0.378817,-0.251648,-0.202241,0.453889
7.935,-0.016158,0.642392,0.65855,-0.361556,-0.389543,0.751099
7.94,-0.0858357,0.79319,0.879025,-0.408391,-0.557063,0.965453
7.945,-0.166779,0.800254,0.967033,-0.365737,-0.654606,1.02034
7.95,-0.239552,0.670157,0.909709,-0.24861,-0.663525,0.912135
7.955,-0.285819,0.467288,0.753108,-0.104771,-0.599825,0.704596
7.96,-0.296025,0.263791,0.559816,0.0186101,-0.49412,0.475509
7.965,-0.273014,0.101451,0.374465,0.0990523,-0.373822,0.27477
7.97,-0.22927,-0.0104047,0.218865,0.138376,-0.258731,0.120355
7.975,-0.179692,-0.0812768,0.0984148,0.15067,-0.160565,0.00989464
7.98,-0.135524,-0.125238,0.0102858,0.150551,-0.0841831,-0.0663676
7.985,-0.102069,-0.153584,-0.051515,0.147602,-0.0291875,-0.118414
7.99,-0.0795281,-0.172644,-0.093116,0.145592,0.00784495,-0.153437
7.995,-0.0653993,-0.186033,-0.120634,0.145165,0.0318898,-0.177055
8,-0.0566747,-0.19604,-0.139366,0.145905,0.0477416,-0.193647
8.005,-0.0508931,-0.203011,-0.152118,0.146591,0.0584421,-0.205034
8.01,-0.0467518,-0.207294,-0.160542,0.146673,0.0656967,-0.21237
8.015,-0.0437647,-0.210449,-0.166685,0.14677,0.0709678,-0.217738
8.02,-0.0416939,-0.213349,-0.171655,0.147249,0.075033,-0.222282
8.025,-0.0399145,-0.215526,-0.175611,0.147479,0.0783445,-0.225823
8.03,-0.0380293,-0.216841,-0.178811,0.147149,0.0812806,-0.22843
8.035,-0.0359152,-0.216503,-0.180588,0.145734,0.0835266,-0.22926
8.04,-0.03359,-0.213869,-0.180279,0.142871,0.084691,-0.227562
8.045,-0.0311096,-0.208887,-0.177777,0.138562,0.0846784,-0.22324
8.05,-0.0286018,-0.202323,-0.173721,0.133324,0.0837847,-0.217109
8.055,-0.0261135,-0.195093,-0.16898,0.127714,0.0824837,-0.210197
8.06,-0.0235145,-0.188068,-0.164553,0.122157,0.0814287,-0.203586
8.065,-0.0207931,-0.181344,-0.160551,0.116704,0.0806892,-0.197393
8.07,-0.0178464,-0.173988,-0.156142,0.110756,0.0798449,-0.190601
8.075,-0.0144528,-0.165977,-0.151524,0.104171,0.0791382,-0.183309
8.08,-0.010563,-0.158731,-0.148168,0.0977417,0.079446,-0.177188
8.085,-0.00626271,-0.152377,-0.146115,0.0915908,0.0807434,-0.172334
8.09,-0.00164879,-0.145972,-0.144323,0.0852289,0.0823732,-0.167602
8.095,0.00309491,-0.140511,-0.143606,0.0793372,0.0846977,-0.164035
8.1,0.00829509,-0.137033,-0.145328,0.0743267,0.0886942,-0.163021
8.105,0.0143137,-0.133699,-0.148012,0.0689268,0.0937189,-0.162646
8.11,0.02101,-0.128488,-0.149498,0.0620525,0.0984429,-0.160495
8.115,0.0282578,-0.120713,-0.14897,0.0533788,0.102323,-0.155702
8.12,0.0360481,-0.110748,-0.146796,0.0431282,0.105565,-0.148694
8.125,0.0441829,-0.100227,-0.14441,0.0323572,0.108884,-0.141241
8.13,0.0523056,-0.0922206,-0.144526,0.0230449,0.113641,-0.136686
8.135,0.0600922,-0.0872939,-0.147386,0.015705,0.119788,-0.135493
8.14,0.0676096,-0.0827306,-0.15034,0.00873008,0.125833,-0.134563
8.145,0.0750683,-0.0773054,-0.152374,0.00129159,0.131314,-0.132605
8.15,0.0822245,-0.0715869,-0.153811,-0.00614165,0.136275,-0.130134
8.155,0.0884204,-0.0660529,-0.154473,-0.0129139,0.140235,-0.127321
8.16,0.0932924,-0.0611719,-0.154464,-0.0185448,0.143042,-0.124498
8.165,0.0967292,-0.0579651,-0.154694,-0.0223805,0.145159,-0.122779
8.17,0.0987116,-0.0576722,-0.156384,-0.0236941,0.147279,-0.123585
8.175,0.0990176,-0.0600564,-0.159074,-0.0224942,0.149009,-0.126515
8.18,0.0972141,-0.0636678,-0.160882,-0.019368,0.149012,-0.129644
8.185,0.0929235,-0.0667933,-0.159717,-0.0150863,0.145862,-0.130776
8.19,0.0859842,-0.0683335,-0.154318,-0.0101907,0.138738,-0.128548
8.195,0.0766275,-0.06932,-0.145948,-0.00421898,0.128504,-0.124285
8.2,0.0649057,-0.0722394,-0.137145,0.00423408,0.116654,-0.120888
8.205,0.0510631,-0.0782731,-0.129336,0.0157097,0.104154,-0.119863
8.21,0.0359317,-0.0870798,-0.123011,0.0295304,0.0917658,-0.121296
8.215,0.0209092,-0.0968416,-0.117751,0.0438396,0.0800553,-0.123895
8.22,0.00709865,-0.106959,-0.114057,0.0576542,0.0699494,-0.127604
8.225,-0.00500293,-0.118313,-0.11331,0.0711967,0.0625313,-0.133728
8.23,-0.0151028,-0.131074,-0.115971,0.084395,0.0582362,-0.142631
8.235,-0.0232491,-0.143957,-0.120708,0.0965362,0.0562677,-0.152804
8.24,-0.0296001,-0.154338,-0.124738,0.106197,0.0549279,-0.161125
8.245,-0.0341764,-0.160661,-0.126484,0.112489,0.0532939,-0.165783
8.25,-0.0372466,-0.164744,-0.127497,0.116619,0.0521062,-0.168725
8.255,-0.0392568,-0.168852,-0.129595,0.120151,0.0521568,-0.172308
8.26,-0.0406015,-0.17328,-0.132679,0.123485,0.0531608,-0.176645
8.265,-0.0412428,-0.176936,-0.135694,0.125966,0.0545312,-0.180497
8.27,-0.0411304,-0.178622,-0.137491,0.126874,0.055634,-0.182508
8.275,-0.0407294,-0.177617,-0.136887,0.126062,0.0555168,-0.181579
8.28,-0.0408557,-0.175037,-0.134181,0.124645,0.0538813,-0.178527
8.285,-0.0415651,-0.172651,-0.131086,0.123678,0.0516851,-0.175363
8.29,-0.0423565,-0.171444,-0.129088,0.123438,0.0500744,-0.173512
8.295,-0.0426378,-0.171177,-0.12854,0.123446,0.0495954,-0.173042
8.3,-0.0423581,-0.171249,-0.128891,0.123326,0.0499599,-0.173286
8.305,-0.0421296,-0.170016,-0.127886,0.122482,0.0495117,-0.171994
8.31,-0.0425542,-0.166988,-0.124434,0.120979,0.0472734,-0.168253
8.315,-0.0433968,-0.163403,-0.120006,0.119396,0.0442305,-0.163626
8.32,-0.0441627,-0.16086,-0.116697,0.11837,0.0418776,-0.160247
8.325,-0.0445725,-0.159105,-0.114532,0.117593,0.0403911,-0.157984
8.33,-0.0444968,-0.156713,-0.112216,0.116168,0.0390976,-0.155266
8.335,-0.0438971,-0.153529,-0.109632,0.113984,0.0379519,-0.151936
8.34,-0.0427787,-0.150841,-0.108062,0.111786,0.0376915,-0.149478
8.345,-0.0413406,-0.148453,-0.107112,0.109577,0.0379733,-0.147551
8.35,-0.0398931,-0.145486,-0.105593,0.107029,0.0379319,-0.144961
8.355,-0.0386709,-0.142307,-0.103636,0.104488,0.0375078,-0.141995
8.36,-0.0375982,-0.139459,-0.101861,0.102224,0.0371021,-0.139326
8.365,-0.0365317,-0.138287,-0.101755,0.100931,0.0376566,-0.138588
8.37,-0.0355976,-0.139822,-0.104225,0.101279,0.0396219,-0.140901
8.375,-0.035019,-0.143004,-0.107985,0.102782,0.0421271,-0.144909
8.38,-0.0348411,-0.147558,-0.112717,0.105308,0.0449616,-0.15027
8.385,-0.0349671,-0.154213,-0.119246,0.109223,0.0486584,-0.157881
8.39,-0.0351354,-0.161825,-0.12669,0.113715,0.052859,-0.166574
8.395,-0.0352036,-0.168083,-0.132879,0.117368,0.0563931,-0.173761
8.4,-0.0354261,-0.17262,-0.137194,0.120116,0.058756,-0.178872
8.405,-0.0360853,-0.175828,-0.139742,0.122348,0.0598464,-0.182194
8.41,-0.0373199,-0.178967,-0.141647,0.124873,0.0602332,-0.185106
8.415,-0.0389679,-0.183242,-0.144274,0.128293,0.0607984,-0.189091
8.42,-0.0404197,-0.187321,-0.146902,0.131486,0.0614773,-0.192964
8.425,-0.0412411,-0.188769,-0.147528,0.132796,0.0613646,-0.194161
8.43,-0.0418474,-0.18829,-0.146443,0.13287,0.0603881,-0.193258
8.435,-0.0428741,-0.187678,-0.144804,0.133109,0.0588493,-0.191959
8.44,-0.044198,-0.187032,-0.142834,0.133501,0.0569474,-0.190448
8.445,-0.0454011,-0.186395,-0.140993,0.133827,0.0551903,-0.189018
8.45,-0.0462901,-0.186783,-0.140493,0.134565,0.0543878,-0.188952
8.455,-0.0470246,-0.188632,-0.141607,0.136056,0.0546072,-0.190663
8.46,-0.0476665,-0.191154,-0.143487,0.137883,0.0553222,-0.193205
8.465,-0.0481175,-0.193189,-0.145072,0.139318,0.0559765,-0.195295
8.47,-0.0483617,-0.193607,-0.145245,0.139701,0.0559357,-0.195636
8.475,-0.048433,-0.19215,-0.143717,0.1389,0.055012,-0.193912
8.48,-0.048341,-0.190732,-0.142391,0.138029,0.0542998,-0.192329
8.485,-0.0481669,-0.191447,-0.14328,0.138341,0.0549137,-0.193255
8.49,-0.0480321,-0.194321,-0.146289,0.139922,0.0567284,-0.196651
8.495,-0.0482512,-0.197773,-0.149522,0.142042,0.0584689,-0.200511
8.5,-0.0489551,-0.201522,-0.152566,0.144613,0.05982,-0.204433
8.505,-0.0500865,-0.206271,-0.156185,0.148008,0.0612557,-0.209264
8.51,-0.0515605,-0.21163,-0.160069,0.151953,0.0626474,-0.2146
8.515,-0.0528669,-0.215261,-0.162394,0.154804,0.0632354,-0.218039
8.52,-0.053544,-0.215725,-0.162181,0.155462,0.0627215,-0.218184
8.525,-0.0535277,-0.212639,-0.159112,0.153672,0.0609589,-0.21463
8.53,-0.0528844,-0.206646,-0.153761,0.14984,0.0582413,-0.208081
8.535,-0.0519536,-0.20062,-0.148667,0.145823,0.0558372,-0.201661
8.54,-0.0510292,-0.196957,-0.145928,0.143175,0.0547899,-0.197965
8.545,-0.0502762,-0.196993,-0.146717,0.142761,0.0556798,-0.198441
8.55,-0.0497742,-0.200698,-0.150924,0.14461,0.0583989,-0.203009
8.555,-0.0492778,-0.204953,-0.155675,0.14678,0.0614283,-0.208208
8.56,-0.0486303,-0.208212,-0.159581,0.148288,0.0640575,-0.212345
8.565,-0.0479534,-0.210024,-0.16207,0.148943,0.0658853,-0.214828
8.57,-0.0472865,-0.210933,-0.163646,0.149083,0.0671802,-0.216263
8.575,-0.0466865,-0.21286,-0.166174,0.149849,0.0689859,-0.218835
8.58,-0.046285,-0.216319,-0.170034,0.151614,0.0714465,-0.223061
8.585,-0.0461029,-0.219059,-0.172956,0.153091,0.0732386,-0.22633
8.59,-0.0461072,-0.219267,-0.173159,0.153214,0.0733536,-0.226567
8.595,-0.0463669,-0.217189,-0.170823,0.152164,0.0718545,-0.224019
8.6,-0.0469332,-0.214751,-0.167818,0.151083,0.0697927,-0.220876
8.605,-0.0473472,-0.213713,-0.166366,0.150723,0.0687154,-0.219438
8.61,-0.046977,-0.21377,-0.166793,0.150543,0.069176,-0.219719
8.615,-0.0456772,-0.212112,-0.166435,0.148834,0.0697194,-0.218554
8.62,-0.0439626,-0.20623,-0.162267,0.144449,0.0683033,-0.212752
8.625,-0.0426386,-0.195965,-0.153326,0.137758,0.0639055,-0.201663
8.63,-0.0420757,-0.181439,-0.139363,0.129046,0.056169,-0.185215
8.635,-0.0423502,-0.164479,-0.122128,0.119413,0.0460599,-0.165472
8.64,-0.0431183,-0.147529,-0.10441,0.11007,0.0353871,-0.145457
8.645,-0.0437269,-0.131718,-0.0879913,0.101293,0.0255561,-0.126849
8.65,-0.0433751,-0.118186,-0.0748113,0.0932775,0.0181497,-0.111427
8.655,-0.0416522,-0.107177,-0.065525,0.0859267,0.0137829,-0.0997097
8.66,-0.039188,-0.0964198,-0.0572318,0.0782931,0.0104176,-0.0887107
8.665,-0.0372305,-0.0847292,-0.0474987,0.0704134,0.0059284,-0.0763418
8.67,-0.0364119,-0.0731577,-0.0367458,0.06326,0.000192767,-0.0634528
8.675,-0.0361694,-0.0639031,-0.0277337,0.0577769,-0.00487033,-0.0529065
8.68,-0.0351912,-0.0598676,-0.0246764,0.0548822,-0.00607076,-0.0488114
8.685,-0.0324035,-0.0631517,-0.0307482,0.0551688,-0.000955659,-0.0542131
8.69,-0.0284929,-0.0753492,-0.0468563,0.0599533,0.0106021,-0.0705553
8.695,-0.0255759,-0.0961881,-0.0706121,0.0703005,0.0260016,-0.0963021
8.7,-0.0250703,-0.122941,-0.0978709,0.0854544,0.0420314,-0.127486
8.705,-0.0269622,-0.151382,-0.12442,0.102967,0.0562674,-0.159235
8.71,-0.0306073,-0.177302,-0.146694,0.120036,0.0670229,-0.187059
8.715,-0.034769,-0.198006,-0.163237,0.134393,0.0741712,-0.208564
8.72,-0.0381927,-0.213147,-0.174954,0.145111,0.0789591,-0.22407
8.725,-0.0403515,-0.223715,-0.183363,0.152459,0.0825679,-0.235026
8.73,-0.0414439,-0.232889,-0.191445,0.158386,0.0866031,-0.244989
8.735,-0.0419612,-0.241542,-0.199581,0.163681,0.0910019,-0.254683
8.74,-0.0420968,-0.247639,-0.205542,0.167279,0.0943651,-0.261644
8.745,-0.0415382,-0.250638,-0.2091,0.168688,0.0967418,-0.26543
8.75,-0.0383536,-0.249919,-0.211566,0.166434,0.100004,-0.266439
8.755,-0.029389,-0.242794,-0.213405,0.157145,0.106242,-0.263387
8.76,-0.0114321,-0.222116,-0.210684,0.134839,0.115038,-0.249877
8.765,0.0145333,-0.175353,-0.189886,0.0928491,0.118021,-0.210871
8.77,0.0396856,-0.0843303,-0.124016,0.0257756,0.094513,-0.120289
8.775,0.0514061,0.0667139,0.0153078,-0.0681966,0.0208413,0.0473553
8.78,0.0419354,0.27714,0.235205,-0.184218,-0.111584,0.295802
8.785,0.00872088,0.511768,0.503048,-0.300504,-0.285399,0.585904
8.79,-0.0467031,0.697313,0.744016,-0.37563,-0.456522,0.832151
8.795,-0.116384,0.761271,0.877656,-0.372326,-0.573909,0.946235
8.8,-0.186001,0.68372,0.869721,-0.287358,-0.609521,0.896879
8.805,-0.238075,0.50971,0.747785,-0.156828,-0.569187,0.726015
