Time,Lead I,Lead II,Lead III,aVR,aVL,aVF
0,-0.00204467,-0.0029839,-0.000939235,0.00290325,-0.000638222,-0.00226502
0.005,-0.00174046,-0.00242777,-0.000687304,0.00240653,-0.000608041,-0.00179849
0.01,0.000390392,-0.000716241,-0.00110663,0.000188129,0.000864307,-0.00105244
0.015,0.00390022,0.00159185,-0.00230837,-0.00317085,0.00358453,-0.000413681
0.02,0.00893564,0.00296935,-0.0059663,-0.00687335,0.00860363,-0.00173029
0.025,0.0144056,0.00285568,-0.0115499,-0.00996578,0.0149854,-0.0050196
0.03,0.0176628,0.001891,-0.0157718,-0.0112894,0.0193035,-0.0080141
0.035,0.0177474,0.00120069,-0.0165467,-0.0109397,0.0197998,-0.00886005
0.04,0.0159594,0.00172335,-0.014236,-0.0102091,0.0174333,-0.00722418
0.045,0.0152359,0.00259601,-0.0126399,-0.0102953,0.0160941,-0.00579886
0.05,0.0182191,0.0022997,-0.0159194,-0.0118466,0.0197099,-0.00786335
0.055,0.0215104,0.000711453,-0.020799,-0.0128298,0.0244273,-0.0115975
0.06,0.0188654,-0.00191749,-0.0207829,-0.00978486,0.0228909,-0.0131061
0.065,0.0102244,-0.00503285,-0.0152572,-0.00299732,0.0147118,-0.0117145
0.07,0.000491622,-0.00780916,-0.00830078,0.00422478,0.00507629,-0.00930107
0.075,-0.00598677,-0.00984686,-0.00386009,0.00914155,-0.00122784,-0.00791371
0.08,-0.00779156,-0.0119698,-0.00417819,0.0114092,-0.00208618,-0.00932302
0.085,-0.00547889,-0.014653,-0.00917408,0.0116231,0.00213342,-0.0137565
0.09,-0.00172641,-0.017326,-0.0155996,0.0109999,0.0080097,-0.0190096
0.095,6.32E-05,-0.0198077,-0.0198708,0.0113995,0.0115089,-0.0229084
0.1,-0.000293811,-0.0220807,-0.0217869,0.0129179,0.012409,-0.025327
0.105,-0.00048682,-0.0245369,-0.02405,0.0144474,0.0136042,-0.0280516
0.11,0.000659327,-0.0274079,-0.0280672,0.0154433,0.0165853,-0.0320286
0.115,0.0024704,-0.0302469,-0.0327173,0.0160368,0.0203156,-0.0363524
0.12,0.00502512,-0.0317812,-0.0368063,0.0154476,0.0241514,-0.039599
0.125,0.00822453,-0.0316382,-0.0398627,0.0135179,0.0277632,-0.0412811
0.13,0.0121631,-0.0308625,-0.0430257,0.0107961,0.0318633,-0.0426594
0.135,0.0161758,-0.0308096,-0.0469855,0.00844882,0.0364662,-0.044915
0.14,0.0184897,-0.0314652,-0.0499548,0.0074914,0.0395164,-0.0470078
0.145,0.0180389,-0.0322272,-0.0502661,0.00819165,0.0394359,-0.0476275
0.15,0.0152107,-0.0325398,-0.0477505,0.010005,0.0363507,-0.0463556
0.155,0.0111157,-0.0326133,-0.043729,0.0124116,0.0316646,-0.0440763
0.16,0.00660614,-0.032809,-0.0394152,0.0151282,0.0265704,-0.0416987
0.165,0.00262119,-0.0338114,-0.0364326,0.0180077,0.0225477,-0.0405554
0.17,-0.000262463,-0.0361034,-0.035841,0.0209959,0.0205413,-0.0415371
0.175,-0.00176736,-0.0398452,-0.0380779,0.024025,0.0209639,-0.0449889
0.18,-0.00225112,-0.0431072,-0.0408561,0.0261876,0.0222886,-0.0484762
0.185,-0.0011863,-0.0434122,-0.0422259,0.0257489,0.0236942,-0.0494431
0.19,0.00205577,-0.0407733,-0.0428291,0.0223536,0.0259143,-0.0482679
0.195,0.00624904,-0.0372353,-0.0434844,0.0178899,0.0287136,-0.0466035
0.2,0.00913447,-0.0347716,-0.0439061,0.0148016,0.030623,-0.0454246
0.205,0.0101825,-0.0335387,-0.0437212,0.0134847,0.0311214,-0.044606
0.21,0.0117009,-0.0338197,-0.0455205,0.0127703,0.0330368,-0.0458071
0.215,0.0137952,-0.0350742,-0.0488694,0.0122854,0.0361794,-0.0484648
0.22,0.0146677,-0.0365899,-0.0512575,0.0126568,0.0380619,-0.0507187
0.225,0.0131075,-0.0382339,-0.0513414,0.0145067,0.0372096,-0.0517163
0.23,0.00928311,-0.0392823,-0.0485654,0.01732,0.0333988,-0.0507189
0.235,0.00436633,-0.0390929,-0.0434592,0.0200494,0.0276121,-0.0476614
0.24,5.80E-05,-0.0380459,-0.038104,0.0219323,0.0220328,-0.0439652
0.245,-0.00278074,-0.0377364,-0.0349557,0.0233926,0.0185762,-0.0419688
0.25,-0.0047318,-0.0388791,-0.0341473,0.0251788,0.016983,-0.0421618
0.255,-0.00582561,-0.0398225,-0.0339969,0.026355,0.0162647,-0.0426197
0.26,-0.005264,-0.0393772,-0.0341132,0.0257736,0.0166561,-0.0424296
0.265,-0.00284312,-0.0387163,-0.0358732,0.0239943,0.0190699,-0.0430643
0.27,0.000260641,-0.0384229,-0.0386835,0.022033,0.0224844,-0.0445174
0.275,0.00260617,-0.0384457,-0.0410518,0.0206919,0.025206,-0.0458979
0.28,0.00380935,-0.0386244,-0.0424338,0.0201005,0.0266985,-0.046799
0.285,0.00526909,-0.0382928,-0.0435619,0.0190663,0.0281926,-0.0472589
0.29,0.00806984,-0.0361839,-0.0442537,0.0162316,0.030209,-0.0464406
0.295,0.0102647,-0.0306866,-0.0409513,0.0117906,0.0295696,-0.0413602
0.3,0.0104902,-0.0214089,-0.0318991,0.00630392,0.0244735,-0.0307774
0.305,0.0109024,-0.00918981,-0.0200922,-0.000988763,0.0178947,-0.016906
0.31,0.0135059,0.00383752,-0.00966841,-0.0100132,0.0133797,-0.00336646
0.315,0.0162889,0.0155765,-0.000712392,-0.0183974,0.00981567,0.00858177
0.32,0.0158625,0.0255936,0.00973105,-0.0239347,0.00354002,0.0203947
0.325,0.0128886,0.035323,0.0224344,-0.027835,-0.00551126,0.0333462
0.33,0.00997081,0.045688,0.0357171,-0.0321346,-0.0148646,0.0469992
0.335,0.00713953,0.0562797,0.0491402,-0.0366151,-0.0242491,0.0608642
0.34,0.00373788,0.0680638,0.0643259,-0.0414547,-0.0349805,0.0764352
0.345,0.00134886,0.0819059,0.080557,-0.0480671,-0.0457308,0.0937979
0.35,0.00263596,0.0961238,0.0934879,-0.057019,-0.0524533,0.109472
0.355,0.00737771,0.107488,0.10011,-0.0663178,-0.0535392,0.119857
0.36,0.0124381,0.111628,0.0991895,-0.0716294,-0.0500859,0.121715
0.365,0.0156249,0.105809,0.0901842,-0.07011,-0.0430468,0.113157
0.37,0.0167846,0.0904529,0.0736683,-0.0619136,-0.0328418,0.0947554
0.375,0.0160584,0.067525,0.0514666,-0.0482569,-0.0204429,0.0686998
0.38,0.0137844,0.0391982,0.0254138,-0.0305895,-0.00671422,0.0373037
0.385,0.0103116,0.0089188,-0.0013928,-0.0111027,0.00675754,0.00434513
0.39,0.00616078,-0.0190391,-0.0251999,0.00743531,0.0181061,-0.0255414
0.395,0.00234949,-0.0412388,-0.0435883,0.0224527,0.0265222,-0.0489749
0.4,0.000170051,-0.0571376,-0.0573076,0.0328902,0.0331847,-0.0660749
0.405,0.00126615,-0.0680407,-0.0693069,0.0385523,0.0407453,-0.0792976
0.41,0.00530013,-0.0757081,-0.0810082,0.04065,0.0498301,-0.0904802
0.415,0.00940483,-0.0815002,-0.090905,0.0416242,0.0579139,-0.0995381
0.42,0.011293,-0.0858833,-0.0971763,0.0430647,0.0626247,-0.105689
0.425,0.0123531,-0.0883909,-0.100744,0.0439005,0.0652966,-0.109197
0.43,0.0146353,-0.0886402,-0.103276,0.0427268,0.0680758,-0.110803
0.435,0.0189689,-0.084867,-0.103836,0.0380462,0.0709014,-0.108948
0.44,0.0268765,-0.0686175,-0.095494,0.0240992,0.0706506,-0.0947498
0.445,0.0414338,-0.0246074,-0.0660411,-0.00971473,0.0620506,-0.0523359
0.45,0.0599587,0.0641832,0.00422449,-0.0716733,0.0321782,0.0394952
0.455,0.0707762,0.211334,0.140558,-0.162876,-0.0402884,0.203165
0.46,0.0636142,0.418781,0.355167,-0.278511,-0.168328,0.446839
0.465,0.0345852,0.658502,0.623917,-0.400154,-0.340251,0.740405
0.47,-0.0152316,0.862041,0.877272,-0.488905,-0.515287,1.00419
0.475,-0.0780831,0.952652,1.03073,-0.504932,-0.640176,1.14511
0.48,-0.140659,0.898575,1.03923,-0.437583,-0.681211,1.11879
0.485,-0.187514,0.733281,0.920795,-0.315099,-0.639882,0.954981
0.49,-0.206454,0.526641,0.733094,-0.18486,-0.542448,0.727308
0.495,-0.194943,0.338304,0.533247,-0.0827697,-0.42042,0.50319
0.5,-0.159915,0.195582,0.355497,-0.0205924,-0.297573,0.318166
0.505,-0.113316,0.0997062,0.213022,0.0078574,-0.188411,0.180554
0.51,-0.067794,0.0397017,0.107496,0.0162191,-0.101203,0.0849844
0.515,-0.0310513,0.00244222,0.0334935,0.0165174,-0.0372649,0.0207475
0.52,-0.0042202,-0.022717,-0.0184968,0.0155522,0.00824258,-0.0237948
0.525,0.0147437,-0.0410808,-0.0558245,0.0152057,0.0407426,-0.0559483
0.53,0.0259271,-0.0536304,-0.0795575,0.0159945,0.0609015,-0.076896
0.535,0.0306032,-0.0614287,-0.0920319,0.0177971,0.0708034,-0.0886005
0.54,0.0324692,-0.0659719,-0.0984411,0.0193428,0.0755811,-0.0949239
0.545,0.0330084,-0.0686853,-0.101694,0.0205981,0.0777702,-0.0983683
0.55,0.0330441,-0.0703175,-0.103362,0.0215198,0.0787538,-0.100274
0.555,0.035131,-0.0702096,-0.105341,0.0202526,0.0811012,-0.101354
0.56,0.0403413,-0.0679881,-0.108329,0.0159619,0.085835,-0.101797
0.565,0.0448394,-0.0642071,-0.109047,0.0111819,0.088846,-0.100028
0.57,0.0442797,-0.0598651,-0.104145,0.00899821,0.0856929,-0.0946911
0.575,0.0394773,-0.0557818,-0.0952591,0.00941339,0.0777901,-0.0872035
0.58,0.0346095,-0.0516397,-0.0862492,0.00983236,0.0697778,-0.0796102
0.585,0.0338814,-0.0468837,-0.0807651,0.00750688,0.0661911,-0.073698
0.59,0.0391435,-0.0416632,-0.0808068,0.00145474,0.0692533,-0.0707081
0.595,0.0487106,-0.0372053,-0.0859159,-0.00664255,0.0777266,-0.0710841
0.6,0.0593971,-0.0347266,-0.0941237,-0.0142435,0.0886352,-0.0743917
0.605,0.0671769,-0.032715,-0.099892,-0.0198966,0.0964573,-0.0765607
0.61,0.069081,-0.0291744,-0.0982554,-0.0230401,0.0966117,-0.0735716
0.615,0.0667955,-0.0235175,-0.090313,-0.0249866,0.0907066,-0.06572
0.62,0.0655358,-0.0161506,-0.0816864,-0.0285126,0.0849987,-0.0564862
0.625,0.0670052,-0.00826676,-0.075272,-0.0339126,0.0821437,-0.0482311
0.63,0.0695473,-0.00178748,-0.0713348,-0.0391212,0.0813383,-0.0422172
0.635,0.0731926,0.00318017,-0.0700125,-0.0440938,0.0826795,-0.0385856
0.64,0.0783695,0.00866902,-0.0697005,-0.0502517,0.0854883,-0.0352365
0.645,0.0851915,0.0154197,-0.0697718,-0.0580879,0.0894681,-0.0313802
0.65,0.094226,0.0226149,-0.0716111,-0.0674581,0.095746,-0.028288
0.655,0.104528,0.0301103,-0.0744176,-0.0777334,0.103314,-0.0255808
0.66,0.112442,0.0384149,-0.0740271,-0.0870973,0.107658,-0.0205607
0.665,0.116485,0.0484654,-0.0680194,-0.0952341,0.106524,-0.0112895
0.67,0.118315,0.0598049,-0.0585105,-0.102838,0.10209,0.000747298
0.675,0.120024,0.071629,-0.0483949,-0.110651,0.0972366,0.0134142
0.68,0.122185,0.0829863,-0.0391989,-0.118456,0.0931751,0.0252806
0.685,0.12495,0.092019,-0.0329311,-0.125267,0.0911527,0.0341144
0.69,0.128985,0.0969384,-0.0320462,-0.130437,0.0929711,0.0374655
0.695,0.134578,0.0979583,-0.0366199,-0.134255,0.0988413,0.0354137
0.7,0.14077,0.0972214,-0.043549,-0.137405,0.106417,0.0309877
0.705,0.145591,0.0979619,-0.0476295,-0.140615,0.111556,0.0290594
0.71,0.148586,0.102082,-0.0465044,-0.144723,0.112636,0.0320876
0.715,0.151387,0.108182,-0.0432051,-0.149862,0.112348,0.0375141
0.72,0.152392,0.112815,-0.0395769,-0.153118,0.110833,0.0422843
0.725,0.147794,0.112961,-0.0348329,-0.150547,0.10544,0.0451071
0.73,0.137343,0.10747,-0.0298733,-0.141343,0.0965425,0.0448004
0.735,0.124238,0.0972727,-0.0269657,-0.127889,0.0872977,0.0405917
0.74,0.111456,0.0841664,-0.0272899,-0.112943,0.0801051,0.0328377
0.745,0.0986906,0.0691348,-0.0295558,-0.096894,0.0740431,0.0228509
0.75,0.0844446,0.0533594,-0.0310852,-0.0795612,0.0667012,0.01286
0.755,0.0706247,0.0380475,-0.0325772,-0.0627419,0.0595836,0.00315831
0.76,0.0597698,0.0235835,-0.0361863,-0.0481241,0.0554003,-0.00727619
0.765,0.0506617,0.0107804,-0.0398813,-0.0354736,0.052275,-0.0168014
0.77,0.0428658,-0.000535424,-0.0434012,-0.0244394,0.0498063,-0.0253668
0.775,0.0376286,-0.0120072,-0.0496357,-0.0147925,0.050382,-0.0355895
0.78,0.0337781,-0.023391,-0.057169,-0.00599699,0.0525083,-0.0465113
0.785,0.0297791,-0.0330718,-0.0628509,0.00190105,0.0534799,-0.055381
0.79,0.025435,-0.0411672,-0.0666022,0.00908296,0.0531377,-0.0622207
0.795,0.0198795,-0.0477567,-0.0676361,0.0160949,0.0505271,-0.066622
0.8,0.0129911,-0.0512714,-0.0642625,0.0221011,0.0446024,-0.0667035
0.805,0.00688787,-0.0519095,-0.0587974,0.0259933,0.0379234,-0.0639166
0.81,0.00505568,-0.0507577,-0.0558134,0.026386,0.0351427,-0.0615288
0.815,0.00909596,-0.0486608,-0.0577568,0.0228428,0.0385974,-0.0614402
0.82,0.0145058,-0.0476006,-0.0621064,0.0191073,0.044232,-0.0633393
0.825,0.0164145,-0.0473649,-0.0637793,0.0178692,0.0462999,-0.0641691
0.83,0.0149999,-0.0455115,-0.0605114,0.0176159,0.0435965,-0.0612123
0.835,0.0122836,-0.0420543,-0.0543378,0.0171881,0.0384639,-0.055652
0.84,0.0102378,-0.0382365,-0.0484743,0.0161651,0.0338974,-0.0500625
0.845,0.00968908,-0.0353189,-0.045008,0.0147974,0.0315794,-0.0463767
0.85,0.010286,-0.0337075,-0.0439936,0.0135224,0.0313383,-0.0448607
0.855,0.0116681,-0.0330215,-0.0446896,0.0123284,0.0325381,-0.0448665
0.86,0.0139873,-0.0331293,-0.0471166,0.0110516,0.0352783,-0.04633
0.865,0.0162616,-0.0325847,-0.0488463,0.00942411,0.0375901,-0.0470142
0.87,0.0175478,-0.0301218,-0.0476696,0.00725961,0.0376533,-0.0449129
0.875,0.0192112,-0.026442,-0.0456532,0.00417475,0.0374494,-0.0416242
0.88,0.02273,-0.0236061,-0.0463362,0.000505797,0.0398754,-0.0403812
0.885,0.0266195,-0.0228249,-0.0494444,-0.00219081,0.0439155,-0.0417247
0.89,0.0284389,-0.0236532,-0.0520921,-0.00276301,0.0464946,-0.0437316
0.895,0.0294648,-0.0248041,-0.054269,-0.00269085,0.0483437,-0.0456529
0.9,0.0336946,-0.025551,-0.0592456,-0.00470169,0.0536591,-0.0489574
0.905,0.0395647,-0.0253372,-0.0649019,-0.0082142,0.0603138,-0.0520996
0.91,0.0419553,-0.0232552,-0.0652105,-0.0107965,0.0618722,-0.0510757
0.915,0.0394624,-0.0200094,-0.0594718,-0.0112312,0.0571197,-0.0458885
0.92,0.0318451,-0.0181705,-0.0500157,-0.00789503,0.0472623,-0.0393673
0.925,0.0209443,-0.0173789,-0.0383232,-0.00205849,0.0342181,-0.0321596
0.93,0.0111379,-0.0162681,-0.027406,0.0029619,0.0222534,-0.0252153
0.935,0.00591053,-0.0153259,-0.0212365,0.00543598,0.0156733,-0.0211093
0.94,0.00563243,-0.0149432,-0.0205757,0.0053756,0.0151313,-0.0205068
0.945,0.00807635,-0.0153677,-0.023444,0.00420963,0.0181983,-0.0224079
0.95,0.0112645,-0.0172542,-0.0285187,0.00345813,0.0229688,-0.026427
0.955,0.0156303,-0.0209882,-0.0366185,0.00309334,0.0301659,-0.0332592
0.96,0.0208054,-0.026233,-0.0470383,0.00313363,0.0391695,-0.0423032
0.965,0.024088,-0.0323538,-0.0564418,0.00477222,0.0464939,-0.0512661
0.97,0.0237021,-0.0382004,-0.0619025,0.00837061,0.0494238,-0.0577944
0.975,0.0206128,-0.0424322,-0.063045,0.0125975,0.0482998,-0.0608973
0.98,0.0175647,-0.0450207,-0.0625854,0.0158518,0.0462746,-0.0621264
0.985,0.0170605,-0.0471328,-0.0641934,0.0173622,0.0469119,-0.0642742
0.99,0.0187171,-0.0499028,-0.0686199,0.0180051,0.050424,-0.0684291
0.995,0.0206408,-0.053957,-0.0745978,0.0192351,0.054986,-0.0742211
1,0.0210335,-0.0587433,-0.0797768,0.0217717,0.0582029,-0.0799746
1.005,0.0186315,-0.0628942,-0.0815256,0.025555,0.0578257,-0.0833808
1.01,0.0139494,-0.0656642,-0.0796135,0.0298575,0.0540185,-0.0838761
1.015,0.00999601,-0.0669855,-0.0769815,0.0329029,0.0502165,-0.0831193
1.02,0.00953546,-0.067003,-0.0765384,0.0331789,0.0496948,-0.0828736
1.025,0.0123707,-0.065776,-0.0781466,0.0308335,0.0522602,-0.0830937
1.03,0.0162318,-0.0643721,-0.0806039,0.0277938,0.0559081,-0.0837019
1.035,0.0186269,-0.0642135,-0.0828403,0.0263194,0.0585821,-0.0849015
1.04,0.0188864,-0.0657938,-0.0846802,0.027082,0.0597942,-0.0868762
1.045,0.0186143,-0.0679659,-0.0865802,0.0284932,0.0607341,-0.0892272
1.05,0.0192531,-0.0700343,-0.0892874,0.0293186,0.0626658,-0.0919844
1.055,0.0206261,-0.0720823,-0.0927083,0.0297082,0.0654336,-0.0951419
1.06,0.0211997,-0.0736822,-0.0948819,0.0303008,0.0670197,-0.0973204
1.065,0.0200804,-0.0747695,-0.0948498,0.0315748,0.0663549,-0.0979297
1.07,0.0167116,-0.0748555,-0.0915671,0.0335694,0.0625147,-0.0960841
1.075,0.0109134,-0.0740301,-0.0849436,0.0364404,0.055343,-0.0917835
1.08,0.00422509,-0.0724798,-0.0767049,0.0394069,0.0467249,-0.0861318
1.085,0.000422357,-0.0714215,-0.0718438,0.0409913,0.0417229,-0.0827142
1.09,0.00193449,-0.0720703,-0.0740048,0.0404929,0.0438436,-0.0843365
1.095,0.00591117,-0.0741535,-0.0800647,0.0393997,0.0496382,-0.0890379
1.1,0.00845487,-0.0767847,-0.0852396,0.0394502,0.0540945,-0.0935447
1.105,0.00961423,-0.078814,-0.0884282,0.0399525,0.0566048,-0.0965573
1.11,0.0103374,-0.0781028,-0.0884402,0.0391243,0.0570292,-0.0961536
1.115,0.00975086,-0.0745656,-0.0843164,0.0374208,0.0543097,-0.0917305
1.12,0.00831128,-0.069965,-0.0782763,0.0355958,0.0499914,-0.0855871
1.125,0.0073314,-0.0666425,-0.0739739,0.0342433,0.0469416,-0.0811849
1.13,0.00775082,-0.0652922,-0.073043,0.0332215,0.0466463,-0.0798678
1.135,0.00974368,-0.0660186,-0.0757623,0.0324903,0.0493669,-0.0818572
1.14,0.0119216,-0.0685424,-0.080464,0.0326901,0.0533388,-0.0860289
1.145,0.0134046,-0.0719491,-0.0853537,0.0338007,0.0570181,-0.0908188
1.15,0.0131531,-0.0751151,-0.0882682,0.0357737,0.0585556,-0.0943293
1.155,0.0113566,-0.0774427,-0.0887993,0.0381549,0.057825,-0.0959798
1.16,0.00995314,-0.0784258,-0.0883789,0.0395327,0.056772,-0.0963047
1.165,0.0103451,-0.0791106,-0.0894558,0.0397017,0.0576201,-0.0973218
1.17,0.012609,-0.0804511,-0.0930601,0.0391686,0.0610081,-0.100177
1.175,0.0149521,-0.0817508,-0.0967028,0.0385662,0.064464,-0.10303
1.18,0.0166091,-0.0820584,-0.0986675,0.0377872,0.0665549,-0.104342
1.185,0.0187449,-0.0810757,-0.0998206,0.0359867,0.0684538,-0.10444
1.19,0.0196286,-0.0795411,-0.0991697,0.0345905,0.0685882,-0.103179
1.195,0.0177492,-0.0779512,-0.0957005,0.0347576,0.0655002,-0.100258
1.2,0.0153565,-0.0748736,-0.0902302,0.0343622,0.0609605,-0.0953227
1.205,0.0140092,-0.0683344,-0.0823436,0.0313646,0.0556293,-0.086994
1.21,0.0130153,-0.0580146,-0.0710299,0.0259803,0.0485235,-0.0745038
1.215,0.0101415,-0.0452917,-0.0554332,0.020294,0.0378595,-0.0581535
1.22,0.00432001,-0.0318191,-0.0361391,0.0158766,0.0233591,-0.0392357
1.225,-0.00218188,-0.0194162,-0.0172343,0.0124696,0.00869053,-0.0211602
1.23,-0.0063665,-0.00941662,-0.00305013,0.00911238,-0.00191471,-0.00719768
1.235,-0.0074393,-4.05E-05,0.00739882,0.00431845,-0.00856679,0.00424834
1.24,-0.00511889,0.0106664,0.0157853,-0.00320284,-0.012069,0.0152719
1.245,0.000108274,0.0231317,0.0230234,-0.0134176,-0.01323,0.0266476
1.25,0.00649915,0.0369122,0.030413,-0.0250635,-0.0138067,0.0388702
1.255,0.011981,0.0510899,0.0391089,-0.036414,-0.0156622,0.0520762
1.26,0.015076,0.0640299,0.0489539,-0.0456718,-0.0195594,0.0652312
1.265,0.0169875,0.0734452,0.0564577,-0.0522113,-0.0227881,0.0749994
1.27,0.0198835,0.075778,0.0558945,-0.0552301,-0.020791,0.0760211
1.275,0.0241196,0.0681123,0.0439927,-0.0532501,-0.0114737,0.0647238
1.28,0.027338,0.0510942,0.0237563,-0.0452828,0.0020679,0.0432149
1.285,0.0272232,0.0282631,0.00103988,-0.032035,0.0151169,0.016918
1.29,0.0249531,0.00300414,-0.0219489,-0.0161411,0.0270789,-0.0109378
1.295,0.0224568,-0.0229001,-0.0453569,0.000255959,0.0391523,-0.0394082
1.3,0.0198527,-0.0478467,-0.0676994,0.0161623,0.0505482,-0.0667105
1.305,0.0171637,-0.069582,-0.0867457,0.0302637,0.0599921,-0.0902558
1.31,0.0139314,-0.0867602,-0.100692,0.0420478,0.0661776,-0.108225
1.315,0.00893796,-0.0998631,-0.108801,0.0524957,0.0679766,-0.120472
1.32,0.00276723,-0.109719,-0.112487,0.0617489,0.0665418,-0.128291
1.325,-0.00356532,-0.1166,-0.113035,0.0693777,0.0632023,-0.13258
1.33,-0.00933659,-0.120651,-0.111314,0.0750482,0.0588768,-0.133925
1.335,-0.0129899,-0.122513,-0.109523,0.0782324,0.0557331,-0.133965
1.34,-0.0110918,-0.123278,-0.112186,0.0775782,0.0583667,-0.135945
1.345,-0.000515171,-0.120498,-0.119983,0.069867,0.0689747,-0.138842
1.35,0.0208232,-0.104792,-0.125615,0.0484793,0.0845461,-0.133025
1.355,0.0497482,-0.0612842,-0.111032,0.00666031,0.0928267,-0.099487
1.36,0.0759533,0.027366,-0.0485873,-0.0596514,0.0719035,-0.0122521
1.365,0.0867606,0.174936,0.0881749,-0.15109,-0.000816502,0.151907
1.37,0.0752529,0.380966,0.305713,-0.263398,-0.133056,0.396454
1.375,0.0408373,0.615868,0.575031,-0.379149,-0.308417,0.687566
1.38,-0.0138554,0.811437,0.825292,-0.460484,-0.484482,0.944965
1.385,-0.0790966,0.892303,0.971399,-0.469505,-0.606504,1.07601
1.39,-0.139824,0.828996,0.96882,-0.397893,-0.640076,1.03797
1.395,-0.183192,0.658774,0.841965,-0.274577,-0.591875,0.866452
1.4,-0.201883,0.454325,0.656207,-0.145748,-0.495418,0.641166
1.405,-0.194462,0.27426,0.468722,-0.0460714,-0.382889,0.42896
1.41,-0.166355,0.141764,0.308119,0.0141979,-0.273938,0.25974
1.415,-0.127024,0.0543893,0.181414,0.0419359,-0.178077,0.136141
1.42,-0.0851705,-0.000539252,0.0846313,0.0494846,-0.0980351,0.0485505
1.425,-0.0475668,-0.0358787,0.0116881,0.0481773,-0.0342108,-0.0139664
1.43,-0.0193406,-0.0603819,-0.0410413,0.0460278,0.0125289,-0.0585567
1.435,-0.000283128,-0.0786445,-0.0783614,0.0455689,0.0450785,-0.0906474
1.44,0.0138334,-0.093436,-0.107269,0.0459586,0.0699187,-0.115877
1.445,0.0249431,-0.104819,-0.129762,0.0461162,0.0893189,-0.135435
1.45,0.0330237,-0.111966,-0.14499,0.0455773,0.102776,-0.148353
1.455,0.037167,-0.114904,-0.152071,0.0448817,0.109257,-0.154139
1.46,0.0357383,-0.114273,-0.150011,0.045342,0.107243,-0.152585
1.465,0.0297041,-0.111095,-0.1408,0.0469913,0.0984403,-0.145432
1.47,0.0229424,-0.106852,-0.129794,0.048445,0.0881823,-0.136627
1.475,0.0191645,-0.103572,-0.122736,0.0487324,0.0819263,-0.130659
1.48,0.0192732,-0.102183,-0.121456,0.047868,0.0812501,-0.129118
1.485,0.0223319,-0.102213,-0.124545,0.0461193,0.0847993,-0.130919
1.49,0.0280314,-0.101879,-0.12991,0.042636,0.0911877,-0.133824
1.495,0.0343727,-0.100097,-0.134469,0.0379457,0.0974809,-0.135427
1.5,0.0383394,-0.0966311,-0.13497,0.0336547,0.10006,-0.133715
1.505,0.0402518,-0.0912132,-0.131465,0.0294226,0.0991407,-0.128563
1.51,0.042621,-0.0846831,-0.127304,0.0242846,0.0981063,-0.122391
1.515,0.0477931,-0.0787197,-0.126513,0.0178555,0.100636,-0.118491
1.52,0.0568092,-0.0738713,-0.13068,0.00985081,0.108247,-0.118098
1.525,0.0661962,-0.0700064,-0.136203,0.00219985,0.116855,-0.119055
1.53,0.0713186,-0.0665586,-0.137877,-0.00274821,0.120779,-0.118031
1.535,0.0721526,-0.061715,-0.133868,-0.00602616,0.118946,-0.11292
1.54,0.0714952,-0.0550749,-0.12657,-0.00948031,0.114353,-0.104873
1.545,0.0717,-0.0483808,-0.120081,-0.0134633,0.110725,-0.0972613
1.55,0.0742499,-0.0419025,-0.116152,-0.0186758,0.109929,-0.0912529
1.555,0.0786773,-0.0344909,-0.113168,-0.025511,0.110762,-0.085251
1.56,0.0836435,-0.0259568,-0.1096,-0.0333054,0.111569,-0.0782639
1.565,0.0863717,-0.0173031,-0.103675,-0.0398768,0.109723,-0.0698466
1.57,0.086227,-0.00944742,-0.0956745,-0.0443287,0.105021,-0.0606921
1.575,0.0866107,-0.00246935,-0.0890801,-0.048579,0.101435,-0.0528561
1.58,0.0914531,0.00410874,-0.0873443,-0.0551726,0.103229,-0.0480561
1.585,0.101044,0.0110989,-0.0899449,-0.0647456,0.110267,-0.0455217
1.59,0.11244,0.0181974,-0.0942423,-0.0754234,0.119328,-0.0439045
1.595,0.125187,0.024391,-0.100796,-0.0863589,0.130471,-0.0441124
1.6,0.138775,0.0295124,-0.109262,-0.0971606,0.143204,-0.0460437
1.605,0.14847,0.033055,-0.115414,-0.104803,0.152353,-0.0475502
1.61,0.150939,0.0361316,-0.114807,-0.108005,0.153428,-0.0454233
1.615,0.148968,0.0402592,-0.108709,-0.10925,0.14877,-0.0395194
1.62,0.146438,0.0449219,-0.101516,-0.110481,0.143156,-0.0326745
1.625,0.142975,0.048858,-0.0941169,-0.110755,0.136885,-0.0261302
1.63,0.136281,0.0502449,-0.0860365,-0.107691,0.128355,-0.0206642
1.635,0.126021,0.0490598,-0.0769615,-0.101083,0.117192,-0.0161091
1.64,0.114063,0.0459258,-0.0681373,-0.0923696,0.105193,-0.0128238
1.645,0.102289,0.0402274,-0.0620613,-0.0822816,0.0948874,-0.0126058
1.65,0.0912092,0.0314205,-0.0597887,-0.0708002,0.0871786,-0.0163784
1.655,0.0804163,0.0195379,-0.0608784,-0.0577086,0.0815765,-0.0238679
1.66,0.0685573,0.0048821,-0.0636752,-0.0424003,0.0763445,-0.0339442
1.665,0.0550535,-0.0114602,-0.0665137,-0.0251686,0.0701868,-0.0450182
1.67,0.0414582,-0.0279072,-0.0693654,-0.00782371,0.063984,-0.0561603
1.675,0.0296475,-0.0436411,-0.0732886,0.00807922,0.0594301,-0.0675094
1.68,0.0218354,-0.0577319,-0.0795672,0.0207248,0.0585448,-0.0792696
1.685,0.0183211,-0.0701267,-0.0884478,0.02991,0.061643,-0.091553
1.69,0.0158059,-0.0808648,-0.0966707,0.0375617,0.0649383,-0.1025
1.695,0.0116345,-0.0898061,-0.101441,0.0451324,0.0652839,-0.110416
1.7,0.00669337,-0.0966302,-0.103324,0.0519251,0.0635183,-0.115443
1.705,0.00295403,-0.101526,-0.10448,0.0569103,0.0620268,-0.118937
1.71,0.000354859,-0.104176,-0.104531,0.0599411,0.0605557,-0.120497
1.715,-0.00309506,-0.104617,-0.101522,0.0621877,0.0568269,-0.119015
1.72,-0.00804457,-0.103502,-0.095457,0.0644012,0.0504676,-0.114869
1.725,-0.0124705,-0.101703,-0.0892322,0.0659179,0.0443184,-0.110236
1.73,-0.0128125,-0.0997613,-0.0869487,0.0649945,0.0428025,-0.107797
1.735,-0.00800744,-0.0978368,-0.0898294,0.0611092,0.0472399,-0.108349
1.74,-0.000912464,-0.0964107,-0.0954982,0.0561895,0.0546091,-0.110799
1.745,0.00528705,-0.0953052,-0.100592,0.051972,0.0611294,-0.113101
1.75,0.00737631,-0.0938982,-0.101275,0.0499534,0.0627296,-0.112683
1.755,0.00427809,-0.0921884,-0.0964665,0.050755,0.0581649,-0.10892
1.76,-0.000850329,-0.0904028,-0.0895524,0.052685,0.0512122,-0.103897
1.765,-0.00505584,-0.0886436,-0.0835878,0.0540974,0.0453404,-0.0994378
1.77,-0.00812164,-0.0859278,-0.0778061,0.0542994,0.0402323,-0.0945318
1.775,-0.0102964,-0.0818796,-0.0715832,0.0532178,0.035384,-0.0886017
1.78,-0.0102801,-0.0771675,-0.0668874,0.0504878,0.0326822,-0.08317
1.785,-0.00780029,-0.0738345,-0.0660343,0.0471319,0.0336214,-0.0807533
1.79,-0.00439532,-0.0733813,-0.068986,0.0449044,0.0372914,-0.0821958
1.795,-0.00109857,-0.0750278,-0.0739293,0.0439516,0.0420488,-0.0860004
1.8,0.00272181,-0.0768793,-0.0796011,0.0428148,0.0475291,-0.090344
1.805,0.00736364,-0.078111,-0.0854747,0.040846,0.0536002,-0.0944462
1.81,0.0106373,-0.0785613,-0.0891986,0.0392159,0.0576402,-0.0968562
1.815,0.0106078,-0.0776642,-0.088272,0.038715,0.0570883,-0.0958033
1.82,0.00802517,-0.0761336,-0.0841588,0.0393224,0.0532224,-0.0925448
1.825,0.0058839,-0.075716,-0.0815999,0.0403175,0.0505087,-0.0908263
1.83,0.00800787,-0.0765914,-0.0845992,0.0395967,0.0534667,-0.0930634
1.835,0.0149684,-0.0780812,-0.0930495,0.0364382,0.0623641,-0.0988023
1.84,0.0205859,-0.0791024,-0.0996883,0.0337845,0.0694403,-0.103225
1.845,0.0179276,-0.0788088,-0.0967364,0.0351497,0.0662013,-0.101351
1.85,0.00787455,-0.0775875,-0.0854621,0.0402488,0.0538879,-0.0941367
1.855,-0.00322312,-0.0763472,-0.0731241,0.0459399,0.0403573,-0.0862972
1.86,-0.00960816,-0.0767263,-0.0671181,0.0498452,0.0332034,-0.0830485
1.865,-0.0102316,-0.079482,-0.0692504,0.0517961,0.0340745,-0.0858706
1.87,-0.00778651,-0.0830547,-0.0752682,0.0524472,0.0389606,-0.0914077
1.875,-0.00492841,-0.0854905,-0.0805621,0.0522033,0.0436671,-0.0958704
1.88,-0.0033166,-0.0876064,-0.0842898,0.0524944,0.0467499,-0.0992443
1.885,-0.00382565,-0.0911146,-0.0872889,0.0548137,0.0481875,-0.103001
1.89,-0.00554069,-0.0955516,-0.090011,0.0583657,0.0487689,-0.107135
1.895,-0.0057412,-0.0991793,-0.0934381,0.0605758,0.0506318,-0.111208
1.9,-0.00315919,-0.101678,-0.0985184,0.0605275,0.0550556,-0.115583
1.905,-0.00100584,-0.103449,-0.102443,0.0603067,0.0585646,-0.118871
1.91,-0.00161278,-0.104512,-0.102899,0.0612713,0.0584778,-0.119749
1.915,-0.00343212,-0.104874,-0.101442,0.0625306,0.056586,-0.119117
1.92,-0.00513978,-0.105222,-0.100082,0.0637172,0.0548149,-0.118532
1.925,-0.00675929,-0.106281,-0.0995217,0.0652638,0.0535564,-0.11882
1.93,-0.00655034,-0.107369,-0.100818,0.0657711,0.0544256,-0.120197
1.935,-0.00396841,-0.10818,-0.104212,0.0647489,0.0578754,-0.122624
1.94,-0.00197167,-0.109784,-0.107812,0.064522,0.0611069,-0.125629
1.945,-0.00214941,-0.111952,-0.109802,0.0658763,0.0621534,-0.12803
1.95,-0.00354481,-0.113921,-0.110376,0.0678188,0.061679,-0.129498
1.955,-0.00618285,-0.115186,-0.109003,0.0700722,0.0593632,-0.129435
1.96,-0.0107034,-0.114888,-0.104184,0.0725102,0.0539713,-0.126481
1.965,-0.016186,-0.113397,-0.0972115,0.074815,0.0467801,-0.121595
1.97,-0.0195389,-0.111456,-0.0919169,0.0756299,0.0417874,-0.117417
1.975,-0.0176363,-0.109817,-0.0921808,0.0735853,0.0430382,-0.116623
1.98,-0.011384,-0.109253,-0.0978694,0.06965,0.0499324,-0.119582
1.985,-0.0052408,-0.10977,-0.104529,0.0664013,0.057324,-0.123725
1.99,-0.00349117,-0.110529,-0.107038,0.0658295,0.0597826,-0.125612
1.995,-0.00677261,-0.110781,-0.104009,0.0678697,0.0561392,-0.124009
2,-0.0126275,-0.110562,-0.0979344,0.0711235,0.049252,-0.120375
2.005,-0.0186535,-0.110002,-0.0913487,0.0742793,0.0419706,-0.11625
2.01,-0.0229913,-0.108771,-0.0857802,0.0760733,0.0362511,-0.112324
2.015,-0.024752,-0.107981,-0.0832285,0.0766331,0.0337614,-0.110395
2.02,-0.0250786,-0.108305,-0.0832261,0.0770088,0.0335715,-0.11058
2.025,-0.0257128,-0.108421,-0.0827081,0.0774421,0.0329062,-0.110348
2.03,-0.0261439,-0.107815,-0.0816716,0.0773414,0.0320589,-0.1094
2.035,-0.0238921,-0.107449,-0.0835565,0.0758296,0.0344473,-0.110277
2.04,-0.0183345,-0.108527,-0.0901925,0.0732435,0.0414872,-0.114731
2.045,-0.0129366,-0.110705,-0.0977683,0.0713844,0.0489776,-0.120362
2.05,-0.0111568,-0.111653,-0.100496,0.070904,0.0515798,-0.122484
2.055,-0.0128211,-0.109872,-0.097051,0.070837,0.0486301,-0.119467
2.06,-0.0155384,-0.106138,-0.0905999,0.0702501,0.0433367,-0.113587
2.065,-0.01729,-0.102016,-0.0847257,0.0688812,0.038934,-0.107815
2.07,-0.0178322,-0.0993597,-0.0815276,0.0676607,0.0367745,-0.104435
2.075,-0.0170884,-0.0991142,-0.0820258,0.0670896,0.0374916,-0.104581
2.08,-0.0140513,-0.100745,-0.0866932,0.0662773,0.0419398,-0.108217
2.085,-0.0096771,-0.102671,-0.092994,0.0648642,0.048103,-0.112967
2.09,-0.006539,-0.10413,-0.097591,0.0638947,0.0525689,-0.116464
2.095,-0.00588199,-0.105111,-0.0992289,0.0640817,0.0538938,-0.117976
2.1,-0.00654463,-0.106287,-0.099742,0.0651432,0.0538075,-0.118951
2.105,-0.00538791,-0.106906,-0.101518,0.064833,0.0555008,-0.120334
2.11,-0.0014416,-0.104028,-0.102587,0.0608929,0.058396,-0.119289
2.115,0.000703951,-0.0959274,-0.0966314,0.0549773,0.0561965,-0.111174
2.12,-0.00137916,-0.0823287,-0.0809496,0.0483287,0.04594,-0.0942687
2.125,-0.00493578,-0.0650102,-0.0600745,0.0403833,0.0318343,-0.0722177
2.13,-0.00628654,-0.0478928,-0.0416063,0.0312805,0.0203919,-0.0516723
2.135,-0.0043867,-0.0342283,-0.0298416,0.0222944,0.0146964,-0.0369908
2.14,-0.00219883,-0.023219,-0.0210201,0.014675,0.0108665,-0.0255415
2.145,-0.0034292,-0.012214,-0.00878482,0.00903162,0.00309207,-0.0121237
2.15,-0.00681978,0.000507068,0.00732685,0.00364464,-0.00816756,0.00452291
2.155,-0.00953873,0.0155065,0.0250453,-0.00344552,-0.0199671,0.0234126
2.16,-0.0121729,0.0312984,0.0434713,-0.0110421,-0.0321262,0.0431683
2.165,-0.0149496,0.0450849,0.0600344,-0.0173986,-0.043292,0.0606906
2.17,-0.0153801,0.0552975,0.0706776,-0.0230463,-0.0496854,0.0727317
2.175,-0.0110471,0.0602379,0.0712851,-0.0284003,-0.0475345,0.0759348
2.18,-0.00306345,0.0562318,0.0592953,-0.0306968,-0.0360028,0.0666996
2.185,0.00401501,0.0409969,0.0369819,-0.0259876,-0.0190334,0.0450211
2.19,0.00684569,0.0167321,0.00988637,-0.0136126,-0.00175553,0.0153682
2.195,0.00653877,-0.0124868,-0.0190256,0.00343411,0.0147596,-0.0181937
2.2,0.00598578,-0.0426399,-0.0486257,0.0211623,0.03153,-0.0526922
2.205,0.00447871,-0.0695346,-0.0740133,0.03756,0.0453174,-0.0828774
2.21,-5.12E-05,-0.0902004,-0.0901492,0.0521068,0.0520181,-0.104125
2.215,-0.00626431,-0.104415,-0.0981505,0.0639006,0.0530505,-0.116951
2.22,-0.0103064,-0.114414,-0.104108,0.0720075,0.0541562,-0.126164
2.225,-0.00802184,-0.122062,-0.11404,0.075104,0.0612098,-0.136314
2.23,0.000466702,-0.128296,-0.128763,0.0738023,0.0746107,-0.148413
2.235,0.00831348,-0.132963,-0.141277,0.0719665,0.0863659,-0.158332
2.24,0.00888115,-0.135204,-0.144085,0.0729324,0.088315,-0.161247
2.245,0.00320989,-0.135157,-0.138367,0.0761796,0.0817392,-0.157919
2.25,-0.000169277,-0.130667,-0.130498,0.0755385,0.0752453,-0.150784
2.255,0.00798734,-0.11316,-0.121148,0.0607216,0.074556,-0.135278
2.26,0.0297383,-0.0699108,-0.0996491,0.0231936,0.0747019,-0.0978955
2.265,0.0557375,0.0145359,-0.0412016,-0.0405724,0.0559678,-0.0153954
2.27,0.0707843,0.155869,0.0850851,-0.130859,-0.00825653,0.139115
2.275,0.0648527,0.357513,0.29266,-0.243853,-0.131525,0.375377
2.28,0.0355876,0.592874,0.557287,-0.362842,-0.301203,0.664045
2.285,-0.0139005,0.794832,0.808733,-0.450871,-0.474947,0.925818
2.29,-0.0749584,0.886214,0.961173,-0.468379,-0.59821,1.06659
2.295,-0.135953,0.833908,0.96986,-0.402964,-0.638441,1.04141
2.3,-0.18583,0.672261,0.858091,-0.280841,-0.602708,0.883549
2.305,-0.21411,0.472841,0.68695,-0.149378,-0.520227,0.669605
2.31,-0.213932,0.293865,0.507797,-0.046149,-0.416691,0.46284
2.315,-0.187984,0.158022,0.346006,0.017299,-0.308299,0.291
2.32,-0.146041,0.0647069,0.210748,0.0469583,-0.205992,0.159034
2.325,-0.0986594,0.00476518,0.103425,0.0542098,-0.116673,0.0624634
2.33,-0.0538999,-0.0332636,0.0206363,0.0503238,-0.0430335,-0.00729039
2.335,-0.0180958,-0.0586125,-0.0405167,0.0442875,0.0129447,-0.0572323
2.34,0.00554869,-0.0765909,-0.0821396,0.0410162,0.0506268,-0.0916431
2.345,0.017861,-0.0888069,-0.106668,0.0409606,0.0718968,-0.112857
2.35,0.0231828,-0.0960043,-0.119187,0.0420435,0.0821972,-0.124241
2.355,0.0252215,-0.0995393,-0.124761,0.0429074,0.0865923,-0.1295
2.36,0.0237697,-0.100766,-0.124536,0.0444537,0.0856241,-0.130078
2.365,0.0194105,-0.100357,-0.119767,0.0467343,0.0803543,-0.127089
2.37,0.0158705,-0.0990991,-0.11497,0.048052,0.0755405,-0.123593
2.375,0.0151047,-0.0969442,-0.112049,0.0472501,0.0734121,-0.120662
2.38,0.0164325,-0.0936599,-0.110092,0.0445872,0.0730492,-0.117636
2.385,0.0191889,-0.0904487,-0.109638,0.0411419,0.074378,-0.11552
2.39,0.0234228,-0.0884068,-0.11183,0.0375185,0.078088,-0.115606
2.395,0.0293115,-0.0867567,-0.116068,0.033166,0.083935,-0.117101
2.4,0.0349083,-0.0842268,-0.119135,0.0284741,0.088937,-0.117411
2.405,0.037838,-0.0795382,-0.117376,0.0240756,0.0896129,-0.113688
2.41,0.038644,-0.0732616,-0.111906,0.0199865,0.0869198,-0.106906
2.415,0.0396402,-0.0669057,-0.106546,0.0157418,0.0844005,-0.100142
2.42,0.0422541,-0.0611387,-0.103393,0.010903,0.0840892,-0.0949922
2.425,0.0461963,-0.0554412,-0.101637,0.00533759,0.0853518,-0.0906894
2.43,0.0519193,-0.050317,-0.102236,-0.000925053,0.0890017,-0.0880767
2.435,0.060809,-0.0465633,-0.107372,-0.00822478,0.0970995,-0.0888747
2.44,0.0710701,-0.0432071,-0.114277,-0.0160867,0.10701,-0.0909236
2.445,0.0780584,-0.0380835,-0.116142,-0.0230795,0.112121,-0.089042
2.45,0.0807498,-0.0300174,-0.110767,-0.0292903,0.110572,-0.081282
2.455,0.0822178,-0.019786,-0.102004,-0.036045,0.10636,-0.0703153
2.46,0.0840769,-0.00958188,-0.0936588,-0.0430097,0.102616,-0.059606
2.465,0.0862173,-0.000444652,-0.0866619,-0.0495208,0.0998118,-0.050291
2.47,0.0881115,0.00776984,-0.0803417,-0.0553571,0.0972564,-0.0418993
2.475,0.0908106,0.0158135,-0.0749971,-0.0615594,0.0957291,-0.0341697
2.48,0.096514,0.0232821,-0.0732319,-0.0691643,0.0980028,-0.0288385
2.485,0.104625,0.0298317,-0.0747935,-0.0776287,0.103587,-0.0259586
2.49,0.112965,0.0361957,-0.0767697,-0.0861182,0.109544,-0.0234254
2.495,0.120168,0.0437358,-0.0764318,-0.0946296,0.113507,-0.018877
2.5,0.124801,0.0528819,-0.0719193,-0.102585,0.113577,-0.0109913
2.505,0.127156,0.0623216,-0.0648349,-0.109395,0.110846,-0.00145107
2.51,0.128885,0.0711483,-0.0577366,-0.115489,0.107746,0.00774326
2.515,0.131953,0.0786119,-0.0533415,-0.12157,0.10698,0.0145899
2.52,0.137414,0.0840037,-0.0534108,-0.127836,0.110173,0.0176628
2.525,0.144617,0.087412,-0.0572048,-0.133962,0.116522,0.0174401
2.53,0.151668,0.0892116,-0.0624564,-0.139072,0.123625,0.0154471
2.535,0.152926,0.0897836,-0.0631422,-0.140128,0.124747,0.0153814
2.54,0.143752,0.0889154,-0.0548366,-0.13433,0.114655,0.0196754
2.545,0.126374,0.0857356,-0.0406385,-0.122462,0.0964247,0.0260368
2.55,0.106194,0.0800479,-0.0261461,-0.107527,0.0764066,0.0311202
2.555,0.0880413,0.0729344,-0.0151069,-0.0929393,0.0595526,0.0333867
2.56,0.0747245,0.0639218,-0.0108027,-0.0800474,0.0493791,0.0306683
2.565,0.0656772,0.0514492,-0.014228,-0.067623,0.0461333,0.0214897
2.57,0.0576918,0.0359129,-0.0217788,-0.0540427,0.0458824,0.00816031
2.575,0.0484861,0.0194328,-0.0290532,-0.039213,0.0447673,-0.00555432
2.58,0.0391049,0.00378712,-0.0353178,-0.0247637,0.0429679,-0.0182042
2.585,0.0310618,-0.0100279,-0.0410897,-0.0121439,0.0416566,-0.0295128
2.59,0.0248267,-0.021658,-0.0464847,-0.00182945,0.0411716,-0.0393422
2.595,0.0204139,-0.0317257,-0.0521396,0.00653085,0.0418887,-0.0484196
2.6,0.0174802,-0.0405671,-0.0580473,0.0133292,0.0436058,-0.0569351
2.605,0.0146944,-0.0470001,-0.0616945,0.0186517,0.0441031,-0.0627548
2.61,0.0108106,-0.0506234,-0.061434,0.0229859,0.0417105,-0.0646964
2.615,0.00760332,-0.0524424,-0.0600457,0.0258878,0.0390572,-0.064945
2.62,0.00683841,-0.0531972,-0.0600356,0.0267652,0.0386097,-0.0653749
2.625,0.00721298,-0.052164,-0.059377,0.0259525,0.0384457,-0.0643982
2.63,0.00628612,-0.0488992,-0.0551853,0.0246026,0.0354905,-0.0600932
2.635,0.00195526,-0.0446768,-0.0466321,0.0246653,0.0280519,-0.0527172
2.64,-0.00430658,-0.0411624,-0.0368558,0.0262515,0.0187923,-0.0450438
2.645,-0.00927102,-0.0396255,-0.0303545,0.0282304,0.0121726,-0.040403
2.65,-0.0115147,-0.0402008,-0.028686,0.0298579,0.00991386,-0.0397718
2.655,-0.0111253,-0.0407297,-0.0296044,0.0299385,0.0106689,-0.0406074
2.66,-0.00884052,-0.0389908,-0.0301503,0.0276154,0.0123032,-0.0399186
2.665,-0.00575298,-0.0354877,-0.0297348,0.0238103,0.0138459,-0.0376562
2.67,-0.0029561,-0.0314789,-0.0285228,0.019881,0.0147609,-0.034642
2.675,-0.000215848,-0.0278863,-0.0276704,0.0162248,0.0158509,-0.0320757
2.68,0.00313448,-0.0255381,-0.0286726,0.0129347,0.0183638,-0.0312985
2.685,0.00635946,-0.0246369,-0.0309964,0.0105525,0.0215674,-0.0321199
2.69,0.00862728,-0.0241687,-0.0327959,0.00897282,0.0239157,-0.0328885
2.695,0.00980759,-0.0227494,-0.032557,0.00747193,0.0244592,-0.0319311
2.7,0.0103899,-0.0208726,-0.0312626,0.00605217,0.0240481,-0.0301002
2.705,0.0107503,-0.0195086,-0.0302589,0.00505659,0.0236767,-0.0287333
2.71,0.0105677,-0.0186731,-0.0292407,0.00467965,0.0229834,-0.027663
2.715,0.00996566,-0.017706,-0.0276717,0.0044689,0.0217299,-0.0261988
2.72,0.00984507,-0.0162911,-0.0261362,0.00372162,0.0207738,-0.0244954
2.725,0.0103559,-0.0150573,-0.0254133,0.00271434,0.0206514,-0.0233657
2.73,0.00981516,-0.0142486,-0.0240638,0.00255965,0.01956,-0.0221196
2.735,0.0077349,-0.0135008,-0.0212357,0.00332896,0.0167262,-0.0200552
2.74,0.00509491,-0.012853,-0.0179479,0.00447913,0.0133038,-0.0177829
2.745,0.00243304,-0.0128762,-0.0153092,0.00602933,0.0102435,-0.0162728
2.75,-0.000550589,-0.0131659,-0.0126154,0.00791924,0.00696559,-0.0148848
2.755,-0.00388036,-0.0139848,-0.0101045,0.0103145,0.0035935,-0.013908
2.76,-0.0058362,-0.0157038,-0.00986759,0.0124361,0.00232752,-0.0147636
2.765,-0.00440301,-0.0178754,-0.0134724,0.0128624,0.00523622,-0.0180987
2.77,-0.000369223,-0.0203765,-0.0200073,0.0119775,0.011338,-0.0233156
2.775,0.00322991,-0.0231265,-0.0263565,0.0114873,0.0170817,-0.028569
2.78,0.0045284,-0.0260595,-0.0305879,0.012431,0.0202744,-0.0327054
2.785,0.00327153,-0.0281506,-0.0314221,0.0143639,0.0200304,-0.0343943
2.79,0.000558937,-0.0283794,-0.0289383,0.0160621,0.0170303,-0.0330924
2.795,-0.00145723,-0.0282097,-0.0267525,0.0171282,0.0146042,-0.0317324
2.8,-0.000484771,-0.0297676,-0.0292829,0.0174662,0.0166266,-0.0340928
2.805,0.0028686,-0.032637,-0.0355056,0.0171868,0.0221553,-0.0393421
2.81,0.00505707,-0.0349398,-0.0399968,0.0172528,0.0260119,-0.0432647
2.815,0.00483507,-0.0354901,-0.0403251,0.0176987,0.0260732,-0.0437719
2.82,0.0037909,-0.0345955,-0.0383864,0.017785,0.0243511,-0.0421361
2.825,0.00261829,-0.0340339,-0.0366522,0.0181378,0.0226728,-0.0408106
2.83,0.000515588,-0.0347833,-0.0352988,0.0197844,0.0206775,-0.0404619
2.835,-0.00268936,-0.0358951,-0.0332058,0.0222768,0.0176187,-0.0398954
2.84,-0.00566162,-0.0356853,-0.0300237,0.0238717,0.0140654,-0.0379371
2.845,-0.00685967,-0.0350689,-0.0282092,0.0242074,0.0123261,-0.0365336
2.85,-0.006297,-0.0355656,-0.0292686,0.0241694,0.0132627,-0.037432
2.855,-0.00547437,-0.0372214,-0.031747,0.0246504,0.0151685,-0.0398189
2.86,-0.00503408,-0.0386758,-0.0336417,0.0252359,0.0165166,-0.0417525
2.865,-0.004458,-0.0392977,-0.0348397,0.0252624,0.0175409,-0.0428032
2.87,-0.00385252,-0.0402438,-0.0363913,0.025459,0.0187863,-0.0442453
2.875,-0.00343781,-0.0422082,-0.0387704,0.0263537,0.0203993,-0.046753
2.88,-0.00387978,-0.0441944,-0.0403147,0.0277556,0.0210357,-0.0487913
2.885,-0.00547824,-0.0444021,-0.0389238,0.0287984,0.0193098,-0.0481082
2.89,-0.00727636,-0.0433875,-0.0361111,0.0292508,0.0166478,-0.0458985
2.895,-0.00802802,-0.0431484,-0.0351203,0.0295467,0.0156418,-0.0451884
2.9,-0.00653655,-0.0437712,-0.0372346,0.0290452,0.0177235,-0.0467687
2.905,-0.00204605,-0.0444499,-0.0424039,0.0268444,0.0233006,-0.050145
2.91,0.00305926,-0.045913,-0.0489723,0.0247416,0.0300404,-0.0547821
2.915,0.00513963,-0.0473711,-0.0525107,0.0243824,0.0332844,-0.0576668
2.92,0.00514559,-0.0473012,-0.0524467,0.0243385,0.0332509,-0.0575895
2.925,0.00472416,-0.0460554,-0.0507796,0.0238626,0.0320451,-0.0559077
2.93,0.00235895,-0.0434734,-0.0458324,0.0237374,0.0278233,-0.0515607
2.935,-0.00272633,-0.0401887,-0.0374624,0.024777,0.0200549,-0.0448318
2.94,-0.00779293,-0.0383566,-0.0305637,0.0266444,0.0131467,-0.0397911
2.945,-0.00961457,-0.0392435,-0.0296289,0.0282082,0.0115553,-0.0397635
2.95,-0.00878954,-0.041945,-0.0331555,0.0292916,0.0140677,-0.0433593
2.955,-0.00811326,-0.0446063,-0.036493,0.0304376,0.0163851,-0.0468227
2.96,-0.007868,-0.0457879,-0.0379199,0.0309783,0.0173505,-0.0483288
2.965,-0.0069108,-0.0451285,-0.0382177,0.0300449,0.0180751,-0.04812
2.97,-0.00535999,-0.0440681,-0.0387081,0.0285373,0.0192535,-0.0477908
2.975,-0.00324546,-0.0440038,-0.0407583,0.0272793,0.021658,-0.0489374
2.98,-0.000793296,-0.0450348,-0.0442415,0.0264589,0.0250848,-0.0515437
2.985,0.000396656,-0.0465052,-0.0469018,0.0266207,0.0273078,-0.0539285
2.99,-0.00137979,-0.0467408,-0.0453611,0.0277825,0.0253926,-0.053175
2.995,-0.00602534,-0.0447496,-0.0387242,0.0293149,0.0188787,-0.0481936
3,-0.0110758,-0.0410856,-0.0300098,0.0301154,0.0109315,-0.0410469
3.005,-0.0128242,-0.0364351,-0.0236109,0.0284398,0.00622775,-0.0346676
3.01,-0.00958456,-0.0306867,-0.0211021,0.0232506,0.00664967,-0.0299003
3.015,-0.00363459,-0.0234851,-0.0198505,0.0156576,0.00936227,-0.0250198
3.02,0.000972439,-0.0132825,-0.014255,0.00710723,0.00879154,-0.0158988
3.025,0.00191359,0.000263876,-0.00164971,-0.00125716,0.00205727,-0.000800113
3.03,0.000252509,0.015815,0.0155625,-0.00927656,-0.00883921,0.0181158
3.035,-0.00218695,0.0309638,0.0331508,-0.0166143,-0.0204022,0.0370166
3.04,-0.00409946,0.0447138,0.0488133,-0.0234487,-0.0305492,0.0539978
3.045,-0.00302604,0.0577153,0.0607413,-0.0315748,-0.0368161,0.0683909
3.05,0.00254149,0.0697881,0.0672466,-0.0417595,-0.0373575,0.079117
3.055,0.00996474,0.0812341,0.0712693,-0.0526536,-0.0353942,0.0880479
3.06,0.0148286,0.0927531,0.0779246,-0.0621123,-0.0364285,0.0985408
3.065,0.0156308,0.104229,0.0885979,-0.0692009,-0.0421276,0.111328
3.07,0.0141813,0.115273,0.101092,-0.0747404,-0.0501777,0.124918
3.075,0.0136286,0.123422,0.109793,-0.0791262,-0.0555207,0.134647
3.08,0.0156071,0.124092,0.108485,-0.080655,-0.0536228,0.134278
3.085,0.018903,0.114486,0.0955833,-0.0770123,-0.0442714,0.121284
3.09,0.0214362,0.0946223,0.0731861,-0.0670063,-0.0298778,0.0968842
3.095,0.0227201,0.0668934,0.0441733,-0.0517383,-0.012386,0.0641243
3.1,0.0231265,0.0364814,0.0133549,-0.0344146,0.00564163,0.028773
3.105,0.0217958,0.00871078,-0.013085,-0.017613,0.0201384,-0.00252547
3.11,0.0179638,-0.0140381,-0.0320019,-0.00226654,0.0288477,-0.0265812
3.115,0.0118714,-0.0315906,-0.043462,0.0113849,0.0319467,-0.0433316
3.12,0.00530548,-0.0445559,-0.0498614,0.0226612,0.0318506,-0.0545118
3.125,0.00208072,-0.0537072,-0.0557879,0.0298065,0.0334104,-0.063217
3.13,0.00309264,-0.0595994,-0.062692,0.0326242,0.0379808,-0.070605
3.135,0.00443768,-0.0628964,-0.0673341,0.0337511,0.0414374,-0.0751886
3.14,0.00323788,-0.06435,-0.0675878,0.0352831,0.0408912,-0.0761743
3.145,0.00140367,-0.065385,-0.0667887,0.0369396,0.0393708,-0.0763104
3.15,0.00347889,-0.0649849,-0.0684638,0.0355105,0.0415361,-0.0770466
3.155,0.0145899,-0.055429,-0.070019,0.0235785,0.048849,-0.0724274
3.16,0.0377723,-0.0219909,-0.0597632,-0.00911137,0.0563121,-0.0472008
3.165,0.0662512,0.0556536,-0.0105976,-0.0703817,0.0443687,0.026013
3.17,0.0851488,0.194212,0.109063,-0.161289,-0.0138068,0.175096
3.175,0.0830319,0.396809,0.313777,-0.277036,-0.133221,0.410257
3.18,0.0566262,0.636887,0.58026,-0.4004,-0.30232,0.70272
3.185,0.00719437,0.846558,0.839364,-0.492914,-0.480453,0.973367
3.19,-0.0588889,0.946567,1.00546,-0.512501,-0.6145,1.127
3.195,-0.128308,0.901191,1.0295,-0.446224,-0.668459,1.11468
3.2,-0.18359,0.741809,0.925399,-0.322287,-0.640275,0.962562
3.205,-0.210484,0.539773,0.750257,-0.190115,-0.554684,0.744799
3.21,-0.203437,0.356531,0.559968,-0.0883891,-0.440752,0.529141
3.215,-0.168917,0.21903,0.387947,-0.0289323,-0.321505,0.350438
3.22,-0.122231,0.126961,0.249192,-0.00273131,-0.214441,0.217172
3.225,-0.0770108,0.0680873,0.145098,0.00515198,-0.128235,0.123083
3.23,-0.0399525,0.0301631,0.0701155,0.00565193,-0.0635478,0.0578958
3.235,-0.0132159,0.0045888,0.0178047,0.00498086,-0.0179098,0.0129289
3.24,0.00439269,-0.0141995,-0.0185922,0.00566197,0.0132703,-0.0189323
3.245,0.0158468,-0.0289141,-0.0447609,0.00754445,0.0349918,-0.0425363
3.25,0.0226874,-0.041072,-0.0637595,0.0106143,0.0499101,-0.0605245
3.255,0.0248709,-0.0515423,-0.0764132,0.0153988,0.0584763,-0.0738751
3.26,0.0235678,-0.0590148,-0.0825827,0.0204653,0.061286,-0.0817513
3.265,0.0216674,-0.0620724,-0.0837398,0.0233278,0.0608569,-0.0841847
3.27,0.0215867,-0.0614385,-0.0830252,0.0230085,0.0603977,-0.0834061
3.275,0.0244856,-0.0576923,-0.0821779,0.0191719,0.0615821,-0.0807541
3.28,0.0307807,-0.052918,-0.0836988,0.012781,0.0660947,-0.0788757
3.285,0.0383134,-0.0491216,-0.087435,0.00624014,0.0726008,-0.0788409
3.29,0.0439911,-0.0459104,-0.0899014,0.00110812,0.0773028,-0.0784109
3.295,0.0477681,-0.0428646,-0.0906327,-0.00283102,0.0799057,-0.0770747
3.3,0.0509242,-0.0408288,-0.091753,-0.00582856,0.0823747,-0.0765461
3.305,0.0521795,-0.0401334,-0.0923128,-0.00695481,0.0834226,-0.0764678
3.31,0.0509681,-0.0388511,-0.0898193,-0.00699574,0.0812836,-0.0742879
3.315,0.0489957,-0.0342,-0.0831957,-0.00854233,0.0763208,-0.0677784
3.32,0.0480219,-0.0262679,-0.0742898,-0.0125597,0.0706167,-0.058057
3.325,0.0497021,-0.0177768,-0.0674789,-0.0184321,0.0676545,-0.0492224
3.33,0.0553265,-0.010958,-0.0662845,-0.0256162,0.0702121,-0.0445959
3.335,0.0635488,-0.0063202,-0.069869,-0.0330409,0.0770287,-0.0439878
3.34,0.0713532,-0.00267198,-0.0740252,-0.0396531,0.0839342,-0.0442811
3.345,0.0770046,0.00209368,-0.0749109,-0.0456674,0.0877084,-0.042041
3.35,0.0800106,0.00941427,-0.0705964,-0.0516295,0.0869529,-0.0353235
3.355,0.0806241,0.0184937,-0.0621304,-0.0572257,0.0824193,-0.0251936
3.36,0.0823384,0.0267366,-0.0556018,-0.0629745,0.0796398,-0.0166653
3.365,0.0896768,0.032946,-0.0567308,-0.0707962,0.0845284,-0.0137322
3.37,0.100534,0.0378839,-0.0626505,-0.0799159,0.0942149,-0.014299
3.375,0.108458,0.0440631,-0.0643947,-0.0880579,0.0997964,-0.0117384
3.38,0.110566,0.0518788,-0.0586871,-0.0937875,0.0977183,-0.00393077
3.385,0.109632,0.0601206,-0.0495111,-0.0980065,0.0918811,0.00612543
3.39,0.110067,0.0685297,-0.0415372,-0.103113,0.0875287,0.0155841
3.395,0.114111,0.0760496,-0.0380614,-0.109789,0.0878567,0.0219325
3.4,0.120312,0.0825651,-0.0377465,-0.117131,0.0912549,0.025876
3.405,0.125619,0.0898719,-0.0357467,-0.124413,0.0931643,0.0312492
3.41,0.128567,0.0979056,-0.0306613,-0.130754,0.0919304,0.0388235
3.415,0.130641,0.103372,-0.0272694,-0.135107,0.0911695,0.0439375
3.42,0.134008,0.104262,-0.0297464,-0.137565,0.0945437,0.0430215
3.425,0.137839,0.102665,-0.035174,-0.138855,0.0998891,0.0389661
3.43,0.138851,0.102114,-0.0367378,-0.139121,0.101376,0.0377447
3.435,0.135026,0.103833,-0.0311938,-0.137905,0.0959673,0.0419381
3.44,0.127192,0.106269,-0.0209233,-0.134789,0.0855146,0.0492745
3.445,0.117545,0.107643,-0.00990258,-0.130012,0.073582,0.0564302
3.45,0.107327,0.106386,-0.000940852,-0.123387,0.0625082,0.0608786
3.455,0.0978019,0.101372,0.00356969,-0.114993,0.054405,0.0605879
3.46,0.092416,0.0917142,-0.000701807,-0.106308,0.0537616,0.052546
3.465,0.0906892,0.0766052,-0.014084,-0.0965874,0.0604908,0.0360966
3.47,0.0859688,0.0574166,-0.0285522,-0.0827836,0.0661187,0.0166649
3.475,0.0745334,0.0376495,-0.0368839,-0.0647688,0.0643267,0.000442036
3.48,0.0571989,0.0197778,-0.0374212,-0.0444425,0.0546289,-0.0101864
3.485,0.0378068,0.00578966,-0.0320172,-0.0251704,0.0403129,-0.0151425
3.49,0.020171,-0.00368766,-0.0238587,-0.00951668,0.0254206,-0.0159039
3.495,0.00581394,-0.0103413,-0.0161553,0.0026139,0.0126839,-0.0152978
3.5,-0.00468155,-0.0165311,-0.0118496,0.0122471,0.00413846,-0.0163856
3.505,-0.0111954,-0.0228173,-0.011622,0.0196372,0.000246289,-0.0198835
3.51,-0.0135479,-0.0278565,-0.0143086,0.0239049,0.000439192,-0.0243441
3.515,-0.011555,-0.0308112,-0.0192562,0.0244601,0.00444627,-0.0289064
3.52,-0.00798253,-0.0321915,-0.024209,0.0231945,0.00936833,-0.0325628
3.525,-0.00681196,-0.0329056,-0.0260936,0.0229309,0.0111323,-0.0340632
3.53,-0.00865754,-0.0339383,-0.0252807,0.0245927,0.00959739,-0.0341901
3.535,-0.011864,-0.0363072,-0.0244431,0.0278117,0.00726254,-0.0350742
3.54,-0.0147319,-0.0398853,-0.0251533,0.0315333,0.00601679,-0.0375501
3.545,-0.0156144,-0.0431934,-0.027579,0.0339527,0.00690773,-0.0408604
3.55,-0.0123886,-0.0448044,-0.0324158,0.0330204,0.0115627,-0.0445831
3.555,-0.00555129,-0.0444887,-0.0389375,0.0288906,0.0192755,-0.0481661
3.56,0.00148519,-0.0423168,-0.043802,0.0235742,0.0261466,-0.0497207
3.565,0.00694826,-0.0390297,-0.045978,0.0185222,0.030557,-0.0490792
3.57,0.00989587,-0.0357163,-0.0456122,0.0149074,0.0320476,-0.046955
3.575,0.00989028,-0.0319519,-0.0418422,0.0127373,0.0298677,-0.042605
3.58,0.00743856,-0.0273792,-0.0348177,0.0115127,0.0243967,-0.0359094
3.585,0.00317522,-0.0226947,-0.0258699,0.0112696,0.0167692,-0.0280388
3.59,-0.0020229,-0.0185487,-0.0165258,0.011877,0.00837327,-0.0202503
3.595,-0.00694311,-0.0164806,-0.0095375,0.0135237,0.00149787,-0.0150216
3.6,-0.0104966,-0.0171662,-0.00666962,0.0159711,-0.00220949,-0.0137616
3.605,-0.0121487,-0.0193455,-0.00719676,0.0181832,-0.00285901,-0.0153242
3.61,-0.0118706,-0.021085,-0.00921441,0.019027,-0.00153357,-0.0174934
3.615,-0.0100144,-0.0209048,-0.0108904,0.0178512,0.00050576,-0.018357
3.62,-0.00708469,-0.0193109,-0.0122262,0.0152395,0.00296846,-0.018208
3.625,-0.00458001,-0.0173242,-0.0127442,0.0126464,0.0047136,-0.01736
3.63,-0.00368244,-0.0160407,-0.0123583,0.0113872,0.005009,-0.0163962
3.635,-0.00466723,-0.0159433,-0.011276,0.0118995,0.0038156,-0.0157151
3.64,-0.00671981,-0.0177129,-0.0109931,0.0141062,0.0024672,-0.0165734
3.645,-0.00767365,-0.0205905,-0.0129169,0.0163183,0.00302718,-0.0193455
3.65,-0.00363312,-0.0234985,-0.0198654,0.0156644,0.00937171,-0.0250362
3.655,0.00570219,-0.0269233,-0.0326255,0.012252,0.0221285,-0.0343805
3.66,0.0136731,-0.0300536,-0.0437268,0.00945728,0.0331398,-0.0425971
3.665,0.01488,-0.0312026,-0.0460826,0.00942387,0.0351968,-0.0446206
3.67,0.0092361,-0.030457,-0.0396931,0.0122519,0.0282493,-0.0405011
3.675,0.000536538,-0.0304428,-0.0309793,0.0172664,0.0181957,-0.0354621
3.68,-0.00688887,-0.0332057,-0.0263168,0.0231486,0.0112167,-0.0343653
3.685,-0.0118657,-0.0373274,-0.0254616,0.0284016,0.00784962,-0.0362512
3.69,-0.0154775,-0.0403351,-0.0248575,0.0322234,0.00541554,-0.037639
3.695,-0.0182291,-0.0422968,-0.0240677,0.0349446,0.00337091,-0.0383155
3.7,-0.0194027,-0.0445011,-0.0250985,0.0368949,0.00328847,-0.0401833
3.705,-0.0190076,-0.0462643,-0.0272567,0.0376848,0.00476259,-0.0424473
3.71,-0.0185349,-0.0474656,-0.0289307,0.0381054,0.00600199,-0.0441074
3.715,-0.0191948,-0.0497561,-0.0305613,0.0398088,0.00656245,-0.0463713
3.72,-0.0206966,-0.0528159,-0.0321193,0.0424424,0.0065949,-0.0490373
3.725,-0.0216518,-0.0550062,-0.0333543,0.0442585,0.00675644,-0.0510149
3.73,-0.0200043,-0.0564798,-0.0364755,0.0441581,0.00950963,-0.0536677
3.735,-0.0147849,-0.0582418,-0.0434569,0.042162,0.0165538,-0.0587158
3.74,-0.00672362,-0.0593002,-0.0525765,0.0381188,0.0264732,-0.064592
3.745,0.00129162,-0.0593075,-0.0605992,0.0334955,0.0357326,-0.0692281
3.75,0.00372284,-0.0587966,-0.0625195,0.0317969,0.038245,-0.0700419
3.755,-0.002489,-0.0583978,-0.0559088,0.035153,0.0308419,-0.0659949
3.76,-0.0130884,-0.0587778,-0.0456894,0.041492,0.0188222,-0.0603142
3.765,-0.0207432,-0.0608706,-0.0401275,0.0471197,0.0111915,-0.0583112
3.77,-0.0221052,-0.0644772,-0.042372,0.0499884,0.011701,-0.0616894
3.775,-0.0189363,-0.0678448,-0.0489085,0.0501031,0.0173044,-0.0674075
3.78,-0.0140542,-0.0691492,-0.055095,0.0480375,0.0236949,-0.0717324
3.785,-0.0105603,-0.0693462,-0.0587859,0.046134,0.027843,-0.073977
3.79,-0.0112794,-0.0700967,-0.0588174,0.0469825,0.0274461,-0.0744286
3.795,-0.016188,-0.0709169,-0.0547289,0.0502901,0.0222516,-0.0725416
3.8,-0.0229434,-0.0710539,-0.0481105,0.0542693,0.0145302,-0.0687995
3.805,-0.0284535,-0.06965,-0.0411965,0.0566401,0.00735716,-0.0639972
3.81,-0.0307892,-0.0677069,-0.0369177,0.0568668,0.00353827,-0.060405
3.815,-0.029354,-0.0674175,-0.0380635,0.055871,0.00502841,-0.0608994
3.82,-0.0246703,-0.0697453,-0.0450751,0.0545109,0.0117807,-0.0662915
3.825,-0.0194454,-0.0734055,-0.0539601,0.0536074,0.019927,-0.0735345
3.83,-0.0165245,-0.0755442,-0.0590197,0.0531559,0.0245346,-0.0776904
3.835,-0.0157426,-0.0748395,-0.0590969,0.0522976,0.0250306,-0.0773282
3.84,-0.0155368,-0.0723652,-0.0568284,0.0507502,0.0238397,-0.0745899
3.845,-0.0149988,-0.0694602,-0.0544614,0.0487625,0.0227837,-0.0715462
3.85,-0.0141713,-0.0657792,-0.051608,0.0461594,0.0216141,-0.0677735
3.855,-0.014852,-0.0598635,-0.0450115,0.043137,0.0174126,-0.0605496
3.86,-0.0173352,-0.0507234,-0.0333882,0.0392937,0.00926815,-0.0485618
3.865,-0.0194874,-0.0393177,-0.0198303,0.0339512,0.000197968,-0.0341491
3.87,-0.019559,-0.028002,-0.008443,0.0274594,-0.00641783,-0.0210415
3.875,-0.0165229,-0.0192432,-0.00272024,0.0206495,-0.00796897,-0.0126806
3.88,-0.0107625,-0.0125558,-0.00179336,0.0134628,-0.0051783,-0.0082845
3.885,-0.00440977,-0.00431386,9.59E-05,0.00503659,-0.00260135,-0.00243524
3.89,-0.000662387,0.0077583,0.00842069,-0.00409683,-0.00524411,0.00934094
3.895,-0.00118156,0.0236137,0.0247953,-0.0129512,-0.0149977,0.0279489
3.9,-0.00268794,0.0420412,0.0447291,-0.0227206,-0.0273762,0.0500968
3.905,-0.00225433,0.0604587,0.062713,-0.0336043,-0.0375089,0.0711132
3.91,-0.00285261,0.0761986,0.0790512,-0.0423463,-0.0472872,0.0896335
3.915,-0.0078724,0.0866705,0.0945429,-0.0454941,-0.0591295,0.104624
3.92,-0.0154304,0.0879593,0.10339,-0.0418746,-0.0686008,0.110475
3.925,-0.0213043,0.0783796,0.0996839,-0.0329524,-0.0698525,0.102805
3.93,-0.0234177,0.0605038,0.0839214,-0.0214117,-0.0619722,0.0833839
3.935,-0.0216565,0.0367814,0.0584379,-0.00873239,-0.0462425,0.0549749
3.94,-0.0163286,0.00872932,0.0250579,0.00438744,-0.0238945,0.0195071
3.945,-0.00920922,-0.0214187,-0.0122095,0.017683,0.00173222,-0.0194153
3.95,-0.00454826,-0.0502469,-0.0456986,0.031636,0.0237582,-0.0553942
3.955,-0.00406235,-0.0736309,-0.0695685,0.0448562,0.03782,-0.0826761
3.96,-0.00425912,-0.0902618,-0.0860027,0.0545717,0.0471946,-0.101766
3.965,-0.00350504,-0.101456,-0.0979513,0.0605994,0.0545285,-0.115128
3.97,-0.00449356,-0.108459,-0.103965,0.065213,0.0574299,-0.122643
3.975,-0.00837759,-0.111578,-0.1032,0.0692561,0.0547457,-0.124002
3.98,-0.0138724,-0.112393,-0.0985205,0.0728993,0.0488716,-0.121771
3.985,-0.0193259,-0.113393,-0.0940674,0.0766254,0.043152,-0.119777
3.99,-0.0212423,-0.113539,-0.0922962,0.0778157,0.041023,-0.118839
3.995,-0.0149485,-0.105986,-0.0910372,0.0698214,0.0439298,-0.113751
4,0.00513108,-0.0784998,-0.0836309,0.0423594,0.0512467,-0.0936062
4.005,0.039254,-0.0155024,-0.0547564,-0.0137129,0.0542769,-0.0405639
4.01,0.0751596,0.100031,0.0248717,-0.101146,0.0290337,0.0721128
4.015,0.0947775,0.280896,0.186119,-0.216895,-0.0527359,0.269631
4.02,0.0852707,0.517099,0.431829,-0.347778,-0.200085,0.547864
4.025,0.0420371,0.756267,0.71423,-0.460901,-0.38809,0.848991
4.03,-0.0287319,0.913819,0.94255,-0.511005,-0.56077,1.07177
4.035,-0.11181,0.925628,1.03744,-0.469858,-0.663519,1.13338
4.04,-0.186206,0.795897,0.982103,-0.352005,-0.674523,1.02653
4.045,-0.23184,0.587757,0.819597,-0.205489,-0.607047,0.812536
4.05,-0.237547,0.375196,0.612743,-0.0794715,-0.490915,0.570387
4.055,-0.204834,0.203831,0.408665,0.000578796,-0.354203,0.353624
4.06,-0.147836,0.0865532,0.234389,0.0353818,-0.220678,0.185296
4.065,-0.0867395,0.0164575,0.103197,0.0405773,-0.10966,0.0690825
4.07,-0.0391086,-0.0215929,0.0175157,0.035046,-0.0326921,-0.00235396
4.075,-0.0108477,-0.0430168,-0.0321691,0.0310987,0.0123099,-0.0434086
4.08,0.00177156,-0.0587151,-0.0604866,0.0328763,0.0359448,-0.0688211
4.085,0.00408448,-0.0716199,-0.0757043,0.0389916,0.0460661,-0.0850576
4.09,0.00137394,-0.0811422,-0.0825162,0.0460542,0.048434,-0.0944882
4.095,-0.00215895,-0.0875208,-0.0853619,0.0517766,0.0480372,-0.0998138
4.1,-0.00352851,-0.0915933,-0.0880648,0.0549186,0.048807,-0.103726
4.105,-0.00191854,-0.0946331,-0.0927145,0.0557441,0.0524211,-0.108165
4.11,0.00182145,-0.0963337,-0.0981551,0.0545666,0.0577215,-0.112288
4.115,0.00675099,-0.0960931,-0.102844,0.0515817,0.0632747,-0.114856
4.12,0.0122359,-0.0946386,-0.106874,0.0475752,0.0687684,-0.116344
4.125,0.0177548,-0.0928165,-0.110571,0.0433369,0.0740891,-0.117426
4.13,0.0229349,-0.0908654,-0.1138,0.0392196,0.0789441,-0.118164
4.135,0.0275724,-0.0884245,-0.115997,0.035133,0.0828897,-0.118023
4.14,0.0319524,-0.0854949,-0.117447,0.0309128,0.0862558,-0.117169
4.145,0.0371193,-0.0821395,-0.119259,0.0259924,0.090285,-0.116277
4.15,0.043659,-0.0779278,-0.121587,0.0197851,0.0954047,-0.11519
4.155,0.0504159,-0.0730175,-0.123433,0.013049,0.100372,-0.113421
4.16,0.0543595,-0.0681429,-0.122502,0.00795786,0.102111,-0.110069
4.165,0.0557049,-0.0638948,-0.1196,0.00472844,0.101212,-0.10594
4.17,0.05794,-0.0604666,-0.118407,0.00145873,0.101814,-0.103272
4.175,0.0618477,-0.0571173,-0.118965,-0.00273112,0.104392,-0.101661
4.18,0.0652623,-0.0520849,-0.117347,-0.007608,0.10543,-0.0978217
4.185,0.0676081,-0.0454459,-0.113054,-0.0127953,0.104305,-0.0915099
4.19,0.0688041,-0.0387851,-0.107589,-0.0173315,0.101841,-0.0845092
4.195,0.0674324,-0.0316757,-0.0991081,-0.0206441,0.0961522,-0.0755081
4.2,0.0640055,-0.0230503,-0.0870558,-0.0236455,0.0872152,-0.0635697
4.205,0.0616638,-0.0130086,-0.0746723,-0.0280911,0.0787136,-0.0506226
4.21,0.0647151,-0.0033059,-0.068021,-0.0354546,0.0766351,-0.0411806
4.215,0.075823,0.00516602,-0.070657,-0.046759,0.0845702,-0.0378112
4.22,0.0927758,0.0127943,-0.0799816,-0.0609509,0.0997415,-0.0387906
4.225,0.110855,0.0196727,-0.0911819,-0.0753599,0.116646,-0.0412859
4.23,0.12625,0.0253575,-0.100893,-0.0875308,0.131141,-0.0436102
4.235,0.138256,0.0298473,-0.108409,-0.0970546,0.142412,-0.0453576
4.24,0.147765,0.0339526,-0.113813,-0.104915,0.151022,-0.0461072
4.245,0.155503,0.0382997,-0.117203,-0.111892,0.157447,-0.0455549
4.25,0.162061,0.0420579,-0.120003,-0.117848,0.16285,-0.0450017
4.255,0.166902,0.0449172,-0.121985,-0.122294,0.166789,-0.044495
4.26,0.168433,0.0477928,-0.12064,-0.124838,0.166896,-0.0420583
4.265,0.165878,0.0509611,-0.114917,-0.125192,0.162117,-0.036925
4.27,0.159098,0.0539088,-0.105189,-0.122979,0.152586,-0.0296066
4.275,0.148118,0.0564868,-0.091631,-0.118128,0.138419,-0.0202905
4.28,0.134338,0.05881,-0.0755283,-0.111514,0.121166,-0.00965231
4.285,0.120313,0.0607203,-0.0595924,-0.104519,0.103868,0.000651235
4.29,0.107824,0.0611239,-0.0467001,-0.0975421,0.0892145,0.00832761
4.295,0.0968732,0.0583951,-0.0384781,-0.0896442,0.0781451,0.0114991
4.3,0.0865596,0.0512041,-0.0353555,-0.0795379,0.0703876,0.00915021
4.305,0.0762315,0.0402254,-0.0360061,-0.0672364,0.0648004,0.00243597
4.31,0.0660379,0.0269704,-0.0390675,-0.0536983,0.0606826,-0.00698426
4.315,0.0572336,0.0117178,-0.0455159,-0.0398091,0.0593224,-0.0195133
4.32,0.0503745,-0.00512546,-0.0554999,-0.0261245,0.0611266,-0.0350021
4.325,0.0432481,-0.0211597,-0.0644078,-0.0127527,0.0621551,-0.0494024
4.33,0.0340531,-0.0339492,-0.0680023,-6.00E-05,0.0589217,-0.0588617
4.335,0.0234113,-0.0428578,-0.0662691,0.0112274,0.0517769,-0.0630044
4.34,0.012283,-0.0487838,-0.0610668,0.0210737,0.0423485,-0.0634222
4.345,0.00294583,-0.0533721,-0.0563179,0.0291136,0.0342159,-0.0633295
4.35,-0.00190311,-0.058071,-0.0561679,0.034626,0.0313297,-0.0659558
4.355,-0.00200754,-0.0619756,-0.0599681,0.0369407,0.0334635,-0.0704042
4.36,0.000676572,-0.0628727,-0.0635493,0.0359089,0.0370808,-0.0729897
4.365,0.00220542,-0.061239,-0.0634444,0.034083,0.0379029,-0.071986
4.37,-0.000156363,-0.0597344,-0.059578,0.0345779,0.0343071,-0.068885
4.375,-0.00414767,-0.0595436,-0.055396,0.0367722,0.0295882,-0.0663604
4.38,-0.0070084,-0.0593784,-0.05237,0.0383284,0.0261895,-0.0645179
4.385,-0.00829591,-0.0580475,-0.0497516,0.0383034,0.0239345,-0.0622379
4.39,-0.00789065,-0.055785,-0.0478944,0.0367632,0.0230962,-0.0598593
4.395,-0.00658859,-0.0536485,-0.0470599,0.0347779,0.0233661,-0.058144
4.4,-0.00557609,-0.0519248,-0.0463487,0.0331982,0.0235401,-0.0567382
4.405,-0.00411674,-0.0494476,-0.0453309,0.0309254,0.023795,-0.0547204
4.41,-0.000622629,-0.046131,-0.0455084,0.0269932,0.0259148,-0.052908
4.415,0.00420158,-0.0435577,-0.0477593,0.0227223,0.0299996,-0.0527219
4.42,0.00802705,-0.0427702,-0.0507972,0.020059,0.0339622,-0.0540212
4.425,0.00895372,-0.0435851,-0.0525388,0.0199944,0.0355027,-0.0554971
4.43,0.00631946,-0.0443855,-0.050705,0.0219774,0.0329231,-0.0549005
4.435,0.00124916,-0.0437227,-0.0449718,0.0245221,0.0266857,-0.0512078
4.44,-0.00349609,-0.0410566,-0.0375605,0.0257225,0.0196671,-0.0453896
4.445,-0.00509987,-0.0371489,-0.032049,0.0243923,0.0155591,-0.0399514
4.45,-0.00327047,-0.0333687,-0.0300983,0.0211536,0.015489,-0.0366427
4.455,0.000627138,-0.0310351,-0.0316622,0.017556,0.0186423,-0.0361983
4.46,0.00490277,-0.0316434,-0.0365462,0.0154387,0.0239306,-0.0393693
4.465,0.00807396,-0.0350003,-0.0430743,0.0155459,0.0295304,-0.0450764
4.47,0.0105295,-0.038932,-0.0494614,0.0163982,0.0346357,-0.0510339
4.475,0.0121704,-0.0420774,-0.0542478,0.0172668,0.0383465,-0.0556134
4.48,0.0116529,-0.044142,-0.0557949,0.0187576,0.0389409,-0.0576985
4.485,0.0100412,-0.0449014,-0.0549426,0.0201266,0.0375184,-0.0576449
4.49,0.00843238,-0.0452283,-0.0536607,0.0212441,0.0358494,-0.0570935
4.495,0.00566049,-0.0465078,-0.0521683,0.0235832,0.0333875,-0.0569707
4.5,0.001915,-0.0491498,-0.0510648,0.027271,0.0305879,-0.0578589
4.505,-0.00163141,-0.0532159,-0.0515845,0.0316661,0.0288404,-0.0605065
4.51,-0.00452206,-0.0581119,-0.0535898,0.0361617,0.0283293,-0.064491
4.515,-0.0058085,-0.0618783,-0.0560699,0.039079,0.0290184,-0.0680974
4.52,-0.00283404,-0.0637856,-0.0609516,0.0384629,0.0335541,-0.072017
4.525,0.00367882,-0.0654338,-0.0691127,0.0356543,0.0420262,-0.0776804
4.53,0.00888738,-0.0680572,-0.0769446,0.0341617,0.0495551,-0.0837168
4.535,0.00869992,-0.0716368,-0.0803367,0.0363366,0.0514053,-0.0877419
4.54,0.0038296,-0.0755799,-0.0794095,0.041425,0.0480581,-0.0894831
4.545,-0.00115078,-0.0792073,-0.0780565,0.0463948,0.0444015,-0.0907963
4.55,-0.00358194,-0.0820984,-0.0785165,0.0494676,0.0432634,-0.092731
4.555,-0.00533814,-0.0836723,-0.0783342,0.0513902,0.0421443,-0.0935345
4.56,-0.00799088,-0.0832866,-0.0752958,0.0526991,0.0388585,-0.0915575
4.565,-0.00971476,-0.0817332,-0.0720185,0.0527975,0.035971,-0.0887685
4.57,-0.00955888,-0.0808238,-0.0712649,0.0521824,0.035626,-0.0878084
4.575,-0.00864171,-0.0812255,-0.0725838,0.0518848,0.036917,-0.0888018
4.58,-0.00894126,-0.0823476,-0.0734064,0.0527056,0.0372189,-0.0899246
4.585,-0.0113783,-0.0831431,-0.0717648,0.0545719,0.0348642,-0.0894361
4.59,-0.0158387,-0.0833227,-0.0674839,0.0572508,0.0298174,-0.0870682
4.595,-0.0217259,-0.0838187,-0.0620928,0.0609362,0.0233058,-0.084242
4.6,-0.0275396,-0.085221,-0.0576814,0.0651023,0.0174024,-0.0825047
4.605,-0.0308452,-0.0868546,-0.0560095,0.067954,0.0145286,-0.0824826
4.61,-0.0302052,-0.0885939,-0.0583887,0.0685887,0.0162718,-0.0848604
4.615,-0.0272511,-0.0903119,-0.0630608,0.067875,0.0206748,-0.0885497
4.62,-0.024352,-0.0909393,-0.0665873,0.0665634,0.0243845,-0.0909479
4.625,-0.0228985,-0.0907452,-0.0678467,0.0656122,0.0259508,-0.091563
4.63,-0.0229679,-0.0910873,-0.0681194,0.0658498,0.0260682,-0.091918
4.635,-0.0234458,-0.0919244,-0.0684786,0.066609,0.0259997,-0.0926087
4.64,-0.0234037,-0.0927804,-0.0693767,0.0670789,0.0265426,-0.0936214
4.645,-0.0223927,-0.094045,-0.0716523,0.0672253,0.0284401,-0.0956654
4.65,-0.0190795,-0.0961123,-0.0770328,0.066506,0.0334593,-0.0999653
4.655,-0.0130819,-0.0987282,-0.0856462,0.0645536,0.041895,-0.106449
4.66,-0.00637506,-0.100367,-0.0939915,0.0616273,0.0505854,-0.112213
4.665,-0.00271067,-0.100401,-0.0976908,0.0595318,0.0548368,-0.114369
4.67,-0.0033415,-0.0997993,-0.0964578,0.0595483,0.0537607,-0.113309
4.675,-0.00548469,-0.0999831,-0.0944985,0.0608919,0.0513921,-0.112284
4.68,-0.00800313,-0.100771,-0.0927674,0.0628005,0.0489387,-0.111739
4.685,-0.0117859,-0.100653,-0.0888672,0.0649167,0.0445029,-0.10942
4.69,-0.0162622,-0.0984064,-0.0821442,0.0662039,0.038037,-0.104241
4.695,-0.0210684,-0.0946901,-0.0736217,0.0668332,0.0303417,-0.0971748
4.7,-0.0267595,-0.0916652,-0.0649057,0.0683725,0.0220237,-0.0903962
4.705,-0.0330394,-0.0906938,-0.0576544,0.0714374,0.0142115,-0.0856489
4.71,-0.0380465,-0.0918701,-0.0538236,0.0750073,0.00910894,-0.0841163
4.715,-0.0396203,-0.094212,-0.0545918,0.0772681,0.00864378,-0.0859119
4.72,-0.037461,-0.0959018,-0.0584407,0.076997,0.0121126,-0.0891096
4.725,-0.0329767,-0.0952676,-0.0622909,0.0740419,0.0169246,-0.0909665
4.73,-0.0280719,-0.0911655,-0.0630937,0.0688417,0.0202198,-0.0890615
4.735,-0.0239035,-0.0825291,-0.0586256,0.0614489,0.0200468,-0.0814957
4.74,-0.0211501,-0.0701834,-0.0490333,0.0527314,0.0160984,-0.0688298
4.745,-0.0197216,-0.05618,-0.0364585,0.0438218,0.00966306,-0.0534848
4.75,-0.0178916,-0.0431273,-0.0252358,0.0352292,0.00424018,-0.0394694
4.755,-0.0155348,-0.0330197,-0.017485,0.0280329,0.00112593,-0.0291589
4.76,-0.0132271,-0.0244219,-0.0111948,0.0217366,-0.00117336,-0.0205633
4.765,-0.00948718,-0.0146914,-0.0052042,0.0139595,-0.00247278,-0.0114867
4.77,-0.00402676,-0.00278267,0.00124409,0.00393143,-0.00304313,-0.000888297
4.775,0.000572877,0.011071,0.0104981,-0.00672257,-0.00573032,0.0124529
4.78,0.00160432,0.024511,0.0229067,-0.0150777,-0.0122989,0.0273766
4.785,0.00017758,0.0351772,0.0349996,-0.0204121,-0.0201045,0.0405165
4.79,-0.00163811,0.0427192,0.0443573,-0.0237182,-0.0265555,0.0502736
4.795,-0.00426698,0.0458239,0.0500908,-0.0239929,-0.0313835,0.0553764
4.8,-0.00757189,0.0413497,0.0489215,-0.0195016,-0.0326165,0.0521181
4.805,-0.0104221,0.0270007,0.0374228,-0.00957167,-0.0276233,0.0371949
4.81,-0.0124998,0.00331879,0.0158186,0.00530067,-0.0163496,0.011049
4.815,-0.0143811,-0.0260584,-0.0116774,0.0233478,-0.00156098,-0.0217868
4.82,-0.0173893,-0.0558087,-0.0384194,0.0422609,0.0121417,-0.0544026
4.825,-0.0220166,-0.0824529,-0.0604363,0.0603154,0.0221816,-0.082497
4.83,-0.0267856,-0.104265,-0.0774789,0.0756618,0.0292678,-0.10493
4.835,-0.0294743,-0.120716,-0.0912416,0.0867123,0.0356613,-0.122374
4.84,-0.0278356,-0.131787,-0.103952,0.0921583,0.0439457,-0.136104
4.845,-0.0225038,-0.139144,-0.116641,0.0933276,0.0543499,-0.147677
4.85,-0.0172427,-0.144502,-0.127259,0.0933834,0.0635181,-0.156902
4.855,-0.0144861,-0.149329,-0.134843,0.0945784,0.0694879,-0.164066
4.86,-0.0134123,-0.153868,-0.140455,0.0965792,0.0733483,-0.169928
4.865,-0.0105093,-0.1537,-0.143191,0.0948062,0.0766035,-0.17141
4.87,-0.00227064,-0.139038,-0.136767,0.0815846,0.0776517,-0.159236
4.875,0.0134601,-0.0965242,-0.109984,0.0479571,0.0712706,-0.119228
4.88,0.0332411,-0.0119662,-0.0452072,-0.0122831,0.0452921,-0.0330091
4.885,0.0465583,0.128103,0.0815449,-0.100841,-0.0201995,0.12104
4.89,0.0427523,0.327417,0.284665,-0.213717,-0.139668,0.353385
4.895,0.014928,0.562128,0.5472,-0.333163,-0.307307,0.640471
4.9,-0.0371067,0.767822,0.804929,-0.421879,-0.486149,0.908028
4.905,-0.104962,0.865841,0.970802,-0.439294,-0.621092,1.06039
4.91,-0.174164,0.81901,0.993174,-0.372302,-0.673963,1.04626
4.915,-0.228038,0.658858,0.886897,-0.248734,-0.643708,0.892442
4.92,-0.253247,0.456664,0.70991,-0.117443,-0.556079,0.673522
4.925,-0.245179,0.272645,0.517824,-0.0158579,-0.440519,0.456377
4.93,-0.208428,0.1331,0.341528,0.0434904,-0.317517,0.274026
4.935,-0.157267,0.0384364,0.195703,0.0686066,-0.203787,0.13518
4.94,-0.109883,-0.0226253,0.0872572,0.0765034,-0.113819,0.0373152
4.945,-0.0761425,-0.0613936,0.0147488,0.0794065,-0.0524761,-0.0269304
4.95,-0.0554911,-0.0864619,-0.0309708,0.0819566,-0.0141568,-0.0677997
4.955,-0.043197,-0.104066,-0.0608687,0.0850221,0.0102028,-0.0952249
4.96,-0.0347992,-0.117601,-0.0828023,0.0879885,0.0277146,-0.115703
4.965,-0.0264004,-0.128621,-0.102221,0.0895018,0.0437749,-0.133277
4.97,-0.0155155,-0.137203,-0.121688,0.0881722,0.0612987,-0.149471
4.975,-0.00495116,-0.142675,-0.137724,0.0852319,0.0766562,-0.161888
4.98,0.00110645,-0.145645,-0.146751,0.0834492,0.0853656,-0.168815
4.985,0.00225175,-0.146735,-0.148987,0.0834175,0.0873177,-0.170735
4.99,0.000854823,-0.145855,-0.14671,0.0837159,0.0851965,-0.168912
4.995,-0.000191313,-0.143342,-0.14315,0.0828688,0.0825374,-0.165406
5,-6.65E-05,-0.140662,-0.140595,0.0812494,0.0811343,-0.162384
5.005,0.000318775,-0.138667,-0.138986,0.0798756,0.0804277,-0.160303
5.01,0.00204133,-0.136397,-0.138438,0.0775702,0.0811059,-0.158676
5.015,0.00789013,-0.132972,-0.140862,0.072216,0.0858821,-0.158098
5.02,0.016688,-0.128095,-0.144783,0.064321,0.0932255,-0.157546
5.025,0.0233074,-0.121418,-0.144725,0.0566441,0.0970137,-0.153658
5.03,0.0249395,-0.113089,-0.138029,0.0508934,0.0940898,-0.144983
5.035,0.0230395,-0.104565,-0.127605,0.047069,0.0869746,-0.134044
5.04,0.0200835,-0.0973718,-0.117455,0.0446224,0.079408,-0.12403
5.045,0.0181544,-0.0918608,-0.110015,0.0425544,0.0739988,-0.116553
5.05,0.0193754,-0.0875554,-0.106931,0.0393637,0.0729229,-0.112287
5.055,0.0249864,-0.0829092,-0.107896,0.0334417,0.0767195,-0.110161
5.06,0.0339032,-0.0768005,-0.110704,0.0247667,0.0834887,-0.108255
5.065,0.0438315,-0.0690868,-0.112918,0.0145812,0.0904995,-0.105081
5.07,0.0532655,-0.0596092,-0.112875,0.00366253,0.095921,-0.0995835
5.075,0.0612059,-0.0480216,-0.109227,-0.00761193,0.0983997,-0.0907878
5.08,0.0655046,-0.0352025,-0.100707,-0.0174949,0.0959624,-0.0784675
5.085,0.0657879,-0.0230942,-0.0888821,-0.0246492,0.0892987,-0.0646495
5.09,0.0662885,-0.0125491,-0.0788376,-0.0310265,0.0837886,-0.0527621
5.095,0.0706559,-0.00327719,-0.0739331,-0.0389011,0.0834784,-0.0445773
5.1,0.0787057,0.00595287,-0.0727528,-0.0488776,0.0874446,-0.0385669
5.105,0.0905632,0.0156258,-0.0749373,-0.0613082,0.0955517,-0.0342435
5.11,0.104334,0.0244247,-0.0799088,-0.0743386,0.106372,-0.0320338
5.115,0.11525,0.0317442,-0.0835054,-0.0848669,0.114751,-0.0298844
5.12,0.120044,0.0386164,-0.081428,-0.0916028,0.11632,-0.0247173
5.125,0.118462,0.0452788,-0.0731827,-0.0945355,0.110646,-0.0161103
5.13,0.113474,0.0511361,-0.0623384,-0.0950379,0.101506,-0.00646765
5.135,0.109821,0.0556647,-0.0541558,-0.0955429,0.0946717,0.000871214
5.14,0.110889,0.0591355,-0.0517534,-0.0981636,0.0939015,0.00426206
5.145,0.115084,0.0620199,-0.0530643,-0.102251,0.0970805,0.00517052
5.15,0.118177,0.0643204,-0.0538562,-0.105365,0.0993232,0.00604152
5.155,0.116475,0.0650307,-0.051444,-0.104792,0.0969479,0.00784431
5.16,0.108966,0.0624982,-0.0464673,-0.0989946,0.0897391,0.00925546
5.165,0.0984522,0.0563512,-0.042101,-0.0893757,0.0811484,0.00822732
5.17,0.0874223,0.0469615,-0.0404608,-0.0775865,0.0738333,0.0037532
5.175,0.0753928,0.0351147,-0.0402781,-0.0638015,0.0667826,-0.00298108
5.18,0.0605575,0.0214083,-0.0391492,-0.047323,0.0575656,-0.0102427
5.185,0.0416922,0.00620041,-0.0354918,-0.0276508,0.0445622,-0.0169114
5.19,0.0216372,-0.0103043,-0.0319415,-0.00654309,0.0309337,-0.0243906
5.195,0.00484339,-0.0275626,-0.032406,0.0131169,0.0215059,-0.0346228
5.2,-0.00697988,-0.0454776,-0.0384977,0.0302863,0.0181968,-0.0484832
5.205,-0.0140091,-0.0632237,-0.0492147,0.0445904,0.020326,-0.0649163
5.21,-0.017618,-0.0802566,-0.0626386,0.0565079,0.0259926,-0.0825005
5.215,-0.0215728,-0.0968524,-0.0752796,0.0683728,0.0310076,-0.0993804
5.22,-0.0288192,-0.111624,-0.0828049,0.0810849,0.0311687,-0.112254
5.225,-0.038608,-0.121534,-0.0829265,0.0924583,0.0255873,-0.118046
5.23,-0.0475186,-0.127128,-0.0796094,0.100832,0.0185276,-0.11936
5.235,-0.0515459,-0.130919,-0.0793727,0.105346,0.0160658,-0.121412
5.24,-0.0503957,-0.134025,-0.083629,0.106475,0.0191873,-0.125662
5.245,-0.0463904,-0.137457,-0.0910664,0.106144,0.0257937,-0.131938
5.25,-0.0414134,-0.142449,-0.101035,0.106153,0.0344227,-0.140575
5.255,-0.0368998,-0.148481,-0.111581,0.10703,0.0431175,-0.150147
5.26,-0.0344226,-0.1533,-0.118877,0.108382,0.04876,-0.157142
5.265,-0.0345212,-0.155599,-0.121078,0.109766,0.0499736,-0.15974
5.27,-0.0363831,-0.155592,-0.119208,0.110837,0.0478192,-0.158656
5.275,-0.0373835,-0.154714,-0.117331,0.110908,0.0461576,-0.157065
5.28,-0.0364406,-0.153379,-0.116938,0.109592,0.0464751,-0.156067
5.285,-0.0352123,-0.151719,-0.116507,0.107925,0.0469353,-0.15486
5.29,-0.0348024,-0.149143,-0.11434,0.106201,0.0459213,-0.152122
5.295,-0.0353161,-0.144942,-0.109626,0.104072,0.0429026,-0.146975
5.3,-0.0363446,-0.140236,-0.103892,0.101949,0.0389982,-0.140947
5.305,-0.0373489,-0.136431,-0.0990822,0.100332,0.0356417,-0.135974
5.31,-0.0387675,-0.13343,-0.0946622,0.0994181,0.0322708,-0.131689
5.315,-0.0406142,-0.130352,-0.0897375,0.0987072,0.0283613,-0.127068
5.32,-0.042719,-0.126897,-0.0841783,0.0979279,0.0239366,-0.121865
5.325,-0.0448367,-0.122426,-0.0775891,0.0965689,0.0189096,-0.115479
5.33,-0.0461035,-0.117855,-0.0717518,0.0946616,0.0148081,-0.10947
5.335,-0.0458972,-0.114993,-0.0690958,0.09289,0.0133937,-0.106284
5.34,-0.0437882,-0.114521,-0.0707329,0.0913999,0.0155565,-0.106956
5.345,-0.0399951,-0.115042,-0.0750474,0.0895109,0.0202375,-0.109748
5.35,-0.0360519,-0.114954,-0.0789023,0.0871833,0.0247397,-0.111923
5.355,-0.0333614,-0.114687,-0.0813259,0.0854759,0.0276923,-0.113168
5.36,-0.0316285,-0.115377,-0.0837488,0.0848739,0.0300917,-0.114966
5.365,-0.0301708,-0.116971,-0.0868006,0.0849526,0.0326952,-0.117648
5.37,-0.028294,-0.118888,-0.0905943,0.0849757,0.0359691,-0.120945
5.375,-0.0250127,-0.119864,-0.0948518,0.0836449,0.0403216,-0.123966
5.38,-0.0214125,-0.119531,-0.0981183,0.0813736,0.0442861,-0.12566
5.385,-0.0197468,-0.118487,-0.0987406,0.0798094,0.0456071,-0.125417
5.39,-0.0216837,-0.117924,-0.0962404,0.0806026,0.0430453,-0.123648
5.395,-0.0266767,-0.118344,-0.0916674,0.0837277,0.0375224,-0.12125
5.4,-0.0326971,-0.119295,-0.0865975,0.0877523,0.0311194,-0.118872
5.405,-0.0385748,-0.120458,-0.0818834,0.0918178,0.0250042,-0.116822
5.41,-0.0436152,-0.122117,-0.0785017,0.0956855,0.0201417,-0.115827
5.415,-0.046637,-0.124688,-0.0780509,0.0989144,0.0181368,-0.117051
5.42,-0.0465495,-0.128239,-0.0816893,0.100914,0.020288,-0.121202
5.425,-0.0439779,-0.132581,-0.0886031,0.101936,0.0257644,-0.127701
5.43,-0.0405686,-0.137539,-0.0969705,0.102831,0.0325636,-0.135394
5.435,-0.0358448,-0.142451,-0.106606,0.102939,0.0408539,-0.143793
5.44,-0.0294656,-0.147057,-0.117592,0.101915,0.0508795,-0.152795
5.445,-0.0257641,-0.150592,-0.124828,0.101819,0.0571946,-0.159014
5.45,-0.0281519,-0.152677,-0.124525,0.104401,0.0556409,-0.160042
5.455,-0.0348051,-0.153977,-0.119172,0.108993,0.0487091,-0.157702
5.46,-0.0432343,-0.155707,-0.112473,0.114859,0.0399748,-0.154833
5.465,-0.0516508,-0.158087,-0.106436,0.121092,0.0316303,-0.152723
5.47,-0.057593,-0.159449,-0.101856,0.125309,0.0255553,-0.150865
5.475,-0.0592544,-0.159007,-0.0997528,0.126013,0.0233818,-0.149395
5.48,-0.0573594,-0.157415,-0.100056,0.124,0.0246509,-0.148651
5.485,-0.0539855,-0.155883,-0.101897,0.121167,0.0276618,-0.148829
5.49,-0.0504761,-0.155787,-0.105311,0.119086,0.0316589,-0.150745
5.495,-0.0472989,-0.157431,-0.110132,0.118201,0.0362769,-0.154478
5.5,-0.0441222,-0.160323,-0.116201,0.118037,0.0416146,-0.159651
5.505,-0.0417247,-0.16333,-0.121605,0.118388,0.0461192,-0.164508
5.51,-0.04085,-0.165158,-0.124308,0.118939,0.0481842,-0.167123
5.515,-0.0396573,-0.165546,-0.125889,0.118474,0.0497859,-0.16826
5.52,-0.036066,-0.165478,-0.129412,0.116362,0.0538934,-0.170255
5.525,-0.031306,-0.166321,-0.135015,0.1141,0.0598764,-0.173976
5.53,-0.0286451,-0.167402,-0.138757,0.113188,0.0635729,-0.17676
5.535,-0.0282237,-0.167379,-0.139156,0.112931,0.0640467,-0.176978
5.54,-0.0276527,-0.166083,-0.13843,0.111853,0.0639575,-0.175811
5.545,-0.0273727,-0.164197,-0.136824,0.110603,0.063192,-0.173795
5.55,-0.0313656,-0.162349,-0.130983,0.111841,0.0575142,-0.169355
5.555,-0.0411073,-0.160333,-0.119226,0.116302,0.0451019,-0.161404
5.56,-0.0528527,-0.157914,-0.105062,0.121686,0.0301428,-0.151829
5.565,-0.0617327,-0.156898,-0.0951651,0.126226,0.0193022,-0.145529
5.57,-0.0655173,-0.158302,-0.0927845,0.129222,0.0157427,-0.144965
5.575,-0.0637383,-0.161838,-0.0980996,0.130236,0.0198385,-0.150075
5.58,-0.0567895,-0.16634,-0.10955,0.128824,0.0304614,-0.159285
5.585,-0.0478564,-0.168827,-0.120971,0.125102,0.0422126,-0.167315
5.59,-0.0408184,-0.167766,-0.126947,0.120426,0.0497266,-0.170153
5.595,-0.0379033,-0.16425,-0.126347,0.116713,0.0510628,-0.167776
5.6,-0.0397125,-0.160372,-0.12066,0.115519,0.046735,-0.162254
5.605,-0.0431775,-0.15669,-0.113512,0.115393,0.0406077,-0.156001
5.61,-0.0428678,-0.151911,-0.109043,0.112455,0.0382061,-0.150661
5.615,-0.0380536,-0.144191,-0.106137,0.105219,0.0393081,-0.144527
5.62,-0.0341177,-0.133226,-0.099108,0.0966158,0.0375221,-0.134138
5.625,-0.0355662,-0.11949,-0.0839241,0.0895218,0.0279195,-0.117441
5.63,-0.041824,-0.104724,-0.0629,0.0846095,0.0121682,-0.0967777
5.635,-0.048323,-0.0909285,-0.0426056,0.0803968,-0.00330095,-0.0770959
5.64,-0.0514305,-0.0779906,-0.0265601,0.0747213,-0.014359,-0.0603623
5.645,-0.0504465,-0.0657469,-0.0153004,0.0670842,-0.0202916,-0.0467927
5.65,-0.0460009,-0.0532051,-0.00720424,0.0572766,-0.0223992,-0.0348773
5.655,-0.0413012,-0.0402555,0.00104577,0.0470868,-0.024449,-0.0226377
5.66,-0.040249,-0.0276042,0.0126448,0.0391751,-0.0305383,-0.00863682
5.665,-0.0424551,-0.0159604,0.0264947,0.0337261,-0.0398082,0.006082
5.67,-0.04434,-0.00751332,0.0368267,0.0299375,-0.0468616,0.0169241
5.675,-0.0432911,-0.00629944,0.0369917,0.0286311,-0.0463513,0.0177202
5.68,-0.0390644,-0.0153166,0.0237478,0.0313969,-0.0362647,0.00486775
5.685,-0.03349,-0.0343796,-0.000889536,0.0391845,-0.0188219,-0.0203626
5.69,-0.0286842,-0.0609315,-0.0322473,0.0517396,0.00205719,-0.0537968
5.695,-0.0252929,-0.0918325,-0.0665396,0.0676223,0.0238138,-0.0914361
5.7,-0.0244563,-0.123345,-0.0988886,0.085333,0.0429735,-0.128306
5.705,-0.0269002,-0.151526,-0.124626,0.103014,0.0564218,-0.159436
5.71,-0.0288922,-0.173894,-0.145001,0.117078,0.0670357,-0.184114
5.715,-0.0265036,-0.189912,-0.163408,0.124948,0.079042,-0.20399
5.72,-0.0239434,-0.199988,-0.176044,0.129287,0.0878156,-0.217102
5.725,-0.0272815,-0.205934,-0.178653,0.134647,0.0873942,-0.222041
5.73,-0.0362233,-0.209376,-0.173152,0.141797,0.079056,-0.220853
5.735,-0.0462074,-0.210552,-0.164345,0.14824,0.0682066,-0.216447
5.74,-0.0523663,-0.210535,-0.158169,0.151786,0.0610851,-0.212871
5.745,-0.0514744,-0.20904,-0.157566,0.150408,0.061252,-0.21166
5.75,-0.0408797,-0.199292,-0.158412,0.138663,0.0678572,-0.20652
5.755,-0.0187009,-0.168696,-0.149995,0.108193,0.0758025,-0.183996
5.76,0.00897168,-0.101181,-0.110153,0.0532372,0.0687766,-0.122014
5.765,0.0276299,0.0201868,-0.00744313,-0.0276069,0.0202494,0.00735753
5.77,0.0256098,0.204155,0.178545,-0.132655,-0.0882972,0.220952
5.775,-3.70E-05,0.434281,0.434318,-0.250711,-0.250775,0.501486
5.78,-0.0472365,0.653405,0.700642,-0.349971,-0.431787,0.781759
5.785,-0.109688,0.78231,0.891999,-0.388338,-0.578324,0.966662
5.79,-0.1774,0.771885,0.949284,-0.343226,-0.650491,0.993717
5.795,-0.235745,0.637241,0.872986,-0.231804,-0.640126,0.87193
5.8,-0.268021,0.442532,0.710554,-0.100754,-0.56498,0.665734
5.805,-0.266424,0.254115,0.520539,0.0071068,-0.454353,0.447246
5.81,-0.237689,0.107261,0.34495,0.0753024,-0.336387,0.261084
5.815,-0.195474,0.00684105,0.202315,0.108907,-0.229664,0.120756
5.82,-0.151279,-0.05791,0.0933688,0.120775,-0.141247,0.0204721
5.825,-0.111682,-0.100847,0.0108345,0.122704,-0.0707348,-0.0519689
5.83,-0.079092,-0.131408,-0.0523156,0.121532,-0.0154593,-0.106073
5.835,-0.0526091,-0.153627,-0.101018,0.11907,0.0279487,-0.147019
5.84,-0.0311688,-0.169133,-0.137964,0.115644,0.0616584,-0.177303
5.845,-0.0171926,-0.179738,-0.162545,0.113698,0.0839191,-0.197617
5.85,-0.010787,-0.186474,-0.175687,0.113889,0.0952051,-0.209094
5.855,-0.00958132,-0.1902,-0.180619,0.115344,0.0987487,-0.214093
5.86,-0.0125031,-0.191991,-0.179488,0.118065,0.0964085,-0.214473
5.865,-0.018026,-0.192187,-0.174161,0.121366,0.0901445,-0.211511
5.87,-0.022899,-0.190994,-0.168095,0.123491,0.0838288,-0.20732
5.875,-0.024536,-0.188844,-0.164308,0.123195,0.0806976,-0.203893
5.88,-0.0226194,-0.185947,-0.163328,0.120416,0.081238,-0.201654
5.885,-0.0193042,-0.181951,-0.162647,0.116195,0.0827591,-0.198954
5.89,-0.0171977,-0.177295,-0.160097,0.11229,0.0825028,-0.194793
5.895,-0.0161757,-0.173166,-0.15699,0.109316,0.0812993,-0.190616
5.9,-0.0147016,-0.170169,-0.155467,0.106735,0.081271,-0.188006
5.905,-0.0117288,-0.167867,-0.156138,0.103689,0.0833746,-0.187064
5.91,-0.00687209,-0.165529,-0.158657,0.0995357,0.0876329,-0.187169
5.915,-0.00138769,-0.163428,-0.162041,0.0951565,0.092753,-0.18791
5.92,0.00294093,-0.16184,-0.164781,0.0917404,0.0968342,-0.188575
5.925,0.00638996,-0.159845,-0.166235,0.0885975,0.0996652,-0.188263
5.93,0.0107328,-0.1565,-0.167233,0.0841586,0.102748,-0.186907
5.935,0.0166724,-0.151236,-0.167909,0.0776904,0.106568,-0.184258
5.94,0.0223766,-0.143929,-0.166306,0.0701786,0.108936,-0.179115
5.945,0.0270345,-0.135763,-0.162798,0.0627746,0.1096,-0.172374
5.95,0.0327513,-0.128543,-0.161294,0.0553051,0.112032,-0.167337
5.955,0.0412077,-0.122551,-0.163759,0.0469637,0.118337,-0.165301
5.96,0.0503782,-0.11717,-0.167548,0.0385624,0.12582,-0.164382
5.965,0.0561008,-0.111773,-0.167874,0.0321423,0.129312,-0.161454
5.97,0.057693,-0.104748,-0.162441,0.0271673,0.127095,-0.154262
5.975,0.0570274,-0.0955893,-0.152617,0.0222637,0.121038,-0.143302
5.98,0.0569716,-0.0859163,-0.142888,0.0167112,0.115389,-0.1321
5.985,0.0606964,-0.077344,-0.13804,0.00961149,0.114741,-0.124352
5.99,0.0686165,-0.0709833,-0.1396,0.00136643,0.120214,-0.12158
5.995,0.0794369,-0.0667686,-0.146206,-0.00731402,0.130275,-0.122961
6,0.0917455,-0.0635572,-0.155303,-0.0162745,0.142633,-0.126359
6.005,0.10266,-0.0605585,-0.163219,-0.0243073,0.153505,-0.129198
6.01,0.10892,-0.0560671,-0.164987,-0.0305144,0.15814,-0.127625
6.015,0.10937,-0.0499082,-0.159278,-0.03433,0.155104,-0.120774
6.02,0.10591,-0.0441346,-0.150044,-0.0356659,0.147775,-0.112109
6.025,0.100884,-0.0402505,-0.141134,-0.0350065,0.139729,-0.104722
6.03,0.0962832,-0.0377521,-0.134035,-0.033793,0.132974,-0.0991815
6.035,0.0924453,-0.036101,-0.128546,-0.0325304,0.12759,-0.0950592
6.04,0.0873136,-0.0356595,-0.122973,-0.0298225,0.121409,-0.0915866
6.045,0.078901,-0.0371359,-0.116037,-0.0241131,0.112547,-0.0884343
6.05,0.0662211,-0.0422004,-0.108421,-0.0138684,0.10083,-0.0869615
6.055,0.0504854,-0.0524076,-0.102893,0.0011098,0.088553,-0.0896628
6.06,0.0345796,-0.0667492,-0.101329,0.0185731,0.0784667,-0.0970398
6.065,0.0198944,-0.0828018,-0.102696,0.0363196,0.0707777,-0.107097
6.07,0.00714587,-0.099044,-0.10619,0.0530574,0.0654344,-0.118492
6.075,-0.00280803,-0.114994,-0.112186,0.0680128,0.0631491,-0.131162
6.08,-0.00977261,-0.129897,-0.120125,0.0806384,0.0637117,-0.14435
6.085,-0.0159346,-0.143219,-0.127284,0.0918872,0.0642876,-0.156175
6.09,-0.0237554,-0.154615,-0.13086,0.102982,0.0618368,-0.164819
6.095,-0.0324203,-0.163517,-0.131097,0.113125,0.056971,-0.170096
6.1,-0.0388158,-0.170373,-0.131557,0.120775,0.0535442,-0.174319
6.105,-0.0411426,-0.175401,-0.134258,0.125021,0.0537603,-0.178782
6.11,-0.0398873,-0.17887,-0.138982,0.126299,0.0572126,-0.183512
6.115,-0.0359772,-0.18178,-0.145803,0.125722,0.0634079,-0.18913
6.12,-0.032438,-0.184689,-0.152251,0.125358,0.069174,-0.194532
6.125,-0.0325094,-0.186809,-0.1543,0.126624,0.0703158,-0.196939
6.13,-0.0353728,-0.18827,-0.152897,0.12912,0.0678528,-0.196973
6.135,-0.0385329,-0.189235,-0.150703,0.131502,0.0647612,-0.196263
6.14,-0.0410108,-0.18855,-0.147539,0.132537,0.0615041,-0.194041
6.145,-0.0442348,-0.185583,-0.141348,0.132685,0.0560682,-0.188753
6.15,-0.0489316,-0.181505,-0.132574,0.133043,0.0482908,-0.181334
6.155,-0.0523623,-0.176958,-0.124595,0.132398,0.0417038,-0.174102
6.16,-0.0515107,-0.173695,-0.122185,0.130023,0.0408037,-0.170826
6.165,-0.0475855,-0.172838,-0.125252,0.127261,0.0448409,-0.172102
6.17,-0.0436068,-0.172675,-0.129068,0.12487,0.0493411,-0.174212
6.175,-0.0411522,-0.171117,-0.129965,0.122554,0.0512758,-0.173829
6.18,-0.0406675,-0.168526,-0.127858,0.120778,0.0503395,-0.171117
6.185,-0.0411304,-0.166397,-0.125267,0.119816,0.0485761,-0.168392
6.19,-0.040446,-0.165124,-0.124678,0.118686,0.0486312,-0.167317
6.195,-0.0386305,-0.164492,-0.125862,0.117273,0.050363,-0.167636
6.2,-0.0369687,-0.163818,-0.12685,0.115924,0.0518927,-0.167817
6.205,-0.0363655,-0.163425,-0.127059,0.115349,0.0523621,-0.167711
6.21,-0.0365443,-0.163936,-0.127392,0.115748,0.052451,-0.168199
6.215,-0.0360911,-0.164681,-0.12859,0.115916,0.0534042,-0.16932
6.22,-0.0351797,-0.164414,-0.129235,0.115236,0.0543027,-0.169538
6.225,-0.0345973,-0.163085,-0.128488,0.114132,0.0542078,-0.16834
6.23,-0.034097,-0.162629,-0.128532,0.11358,0.0545223,-0.168102
6.235,-0.0332577,-0.164853,-0.131596,0.11438,0.0567755,-0.171155
6.24,-0.0323031,-0.168995,-0.136692,0.116219,0.0602687,-0.176488
6.245,-0.0323876,-0.172753,-0.140365,0.118438,0.0623408,-0.180779
6.25,-0.0346247,-0.174773,-0.140149,0.120896,0.0609242,-0.18182
6.255,-0.0395545,-0.176252,-0.136697,0.124596,0.0560853,-0.180681
6.26,-0.0452424,-0.179614,-0.134372,0.129821,0.0514589,-0.18128
6.265,-0.0487414,-0.184521,-0.13578,0.134674,0.0502515,-0.184926
6.27,-0.0491406,-0.189283,-0.140143,0.137654,0.0525401,-0.190194
6.275,-0.0470548,-0.193104,-0.146049,0.138655,0.0571541,-0.19581
6.28,-0.0426949,-0.195252,-0.152557,0.137379,0.063429,-0.200808
6.285,-0.0378447,-0.196737,-0.158892,0.135436,0.0698869,-0.205323
6.29,-0.0351402,-0.198896,-0.163755,0.135121,0.074256,-0.209377
6.295,-0.0351925,-0.201207,-0.166014,0.136485,0.0755298,-0.212015
6.3,-0.0360239,-0.202339,-0.166315,0.137619,0.0752233,-0.212842
6.305,-0.036132,-0.201943,-0.165811,0.137452,0.07487,-0.212322
6.31,-0.0375318,-0.201853,-0.164321,0.138209,0.0732016,-0.21141
6.315,-0.041919,-0.202828,-0.160909,0.141305,0.0686991,-0.210004
6.32,-0.0488137,-0.203948,-0.155134,0.145932,0.0613839,-0.207316
6.325,-0.0542409,-0.20433,-0.150089,0.149286,0.0553379,-0.204624
6.33,-0.0548753,-0.204783,-0.149907,0.149913,0.0548667,-0.20478
6.335,-0.0532733,-0.206328,-0.153054,0.149881,0.0576085,-0.207489
6.34,-0.0535953,-0.208053,-0.154458,0.151063,0.0582331,-0.209296
6.345,-0.0559169,-0.209,-0.153083,0.15295,0.0560987,-0.209048
6.35,-0.0570697,-0.20846,-0.15139,0.153303,0.0544559,-0.207759
6.355,-0.056043,-0.206529,-0.150486,0.151596,0.0545268,-0.206123
6.36,-0.054672,-0.204686,-0.150014,0.14974,0.0550457,-0.204786
6.365,-0.053834,-0.205949,-0.152115,0.149986,0.0567427,-0.206729
6.37,-0.0522092,-0.211148,-0.158938,0.152049,0.0616201,-0.213669
6.375,-0.0492016,-0.217542,-0.168341,0.154005,0.0687851,-0.22279
6.38,-0.0460183,-0.222648,-0.17663,0.155115,0.0754085,-0.230523
6.385,-0.0440547,-0.22677,-0.182715,0.156361,0.0800557,-0.236416
6.39,-0.0445787,-0.230772,-0.186194,0.158974,0.0817614,-0.240735
6.395,-0.0472612,-0.233906,-0.186645,0.162332,0.0804731,-0.242805
6.4,-0.0496483,-0.235731,-0.186083,0.164764,0.0787706,-0.243534
6.405,-0.0501418,-0.23642,-0.186278,0.165446,0.0785981,-0.244044
6.41,-0.0501208,-0.235784,-0.185663,0.165067,0.0782554,-0.243322
6.415,-0.0517818,-0.233609,-0.181827,0.16477,0.0750817,-0.239852
6.42,-0.055717,-0.2308,-0.175083,0.165421,0.0689162,-0.234337
6.425,-0.0605253,-0.228834,-0.168309,0.167061,0.0622286,-0.22929
6.43,-0.063335,-0.228339,-0.165004,0.168398,0.0586986,-0.227096
6.435,-0.0626775,-0.228415,-0.165738,0.168062,0.0595017,-0.227564
6.44,-0.0596922,-0.227318,-0.167626,0.165705,0.0623155,-0.228021
6.445,-0.0563671,-0.225084,-0.168717,0.162496,0.0648654,-0.227361
6.45,-0.0548906,-0.222916,-0.168025,0.160392,0.0653184,-0.22571
6.455,-0.0555105,-0.22154,-0.16603,0.159955,0.0638084,-0.223764
6.46,-0.0550862,-0.22052,-0.165434,0.159121,0.0637093,-0.222831
6.465,-0.0520261,-0.219416,-0.16739,0.156717,0.0666053,-0.223322
6.47,-0.0481688,-0.216906,-0.168737,0.153041,0.06961,-0.222651
6.475,-0.0441407,-0.210897,-0.166757,0.147246,0.0707924,-0.218039
6.48,-0.0404766,-0.201226,-0.16075,0.139547,0.0694397,-0.208987
6.485,-0.0401756,-0.190325,-0.15015,0.13308,0.0634935,-0.196573
6.49,-0.0450414,-0.179877,-0.134836,0.129857,0.0518427,-0.181699
6.495,-0.0523842,-0.169279,-0.116894,0.127977,0.037245,-0.165222
6.5,-0.0582546,-0.157467,-0.0992125,0.124547,0.023647,-0.148194
6.505,-0.0602329,-0.143339,-0.0831056,0.117532,0.0132055,-0.130738
6.51,-0.0584131,-0.126427,-0.0680143,0.106718,0.00554321,-0.112261
6.515,-0.0547521,-0.108154,-0.0534015,0.0940536,-0.000779771,-0.0932738
6.52,-0.0496605,-0.0914863,-0.0418259,0.0814911,-0.0045233,-0.0769678
6.525,-0.0424683,-0.0798252,-0.0373569,0.0706061,-0.00295105,-0.0676551
6.53,-0.0345134,-0.0763207,-0.0418073,0.0639901,0.00421116,-0.0682012
6.535,-0.0297814,-0.0828844,-0.053103,0.0650476,0.0134648,-0.0785124
6.54,-0.0304414,-0.0978714,-0.06743,0.0740814,0.0213554,-0.0954368
6.545,-0.0350931,-0.118456,-0.0833634,0.0886519,0.0278689,-0.116521
6.55,-0.0412853,-0.143329,-0.102044,0.106587,0.0350791,-0.141666
6.555,-0.0468719,-0.170294,-0.123422,0.125381,0.0441961,-0.169577
6.56,-0.0510033,-0.196471,-0.145467,0.142879,0.0545389,-0.197418
6.565,-0.0537044,-0.219351,-0.165647,0.157649,0.06463,-0.222279
6.57,-0.0555644,-0.237269,-0.181705,0.169068,0.0728272,-0.241895
6.575,-0.0573102,-0.249743,-0.192433,0.177277,0.078013,-0.25529
6.58,-0.058582,-0.257228,-0.198646,0.182333,0.0808661,-0.263199
6.585,-0.0577501,-0.261384,-0.203634,0.184252,0.0842259,-0.268478
6.59,-0.0541506,-0.264842,-0.210692,0.18417,0.0903789,-0.274549
6.595,-0.0497059,-0.269296,-0.21959,0.184176,0.0980825,-0.282258
6.6,-0.0442548,-0.27288,-0.228625,0.183098,0.106446,-0.289544
6.605,-0.0333273,-0.268134,-0.234807,0.174049,0.116324,-0.290373
6.61,-0.0116373,-0.242749,-0.231112,0.14687,0.126714,-0.273583
6.615,0.0214136,-0.181721,-0.203135,0.0925535,0.129643,-0.222197
6.62,0.0576013,-0.0668064,-0.124408,0.00531456,0.105083,-0.110398
6.625,0.0830842,0.115433,0.0323491,-0.114614,0.0292919,0.0853221
6.63,0.0821527,0.35528,0.273128,-0.252552,-0.110259,0.362812
6.635,0.0428941,0.599481,0.556587,-0.370875,-0.296581,0.667456
6.64,-0.0304578,0.762575,0.793033,-0.422688,-0.475442,0.898131
6.645,-0.117728,0.77866,0.896388,-0.381589,-0.5855,0.967089
6.65,-0.193732,0.64856,0.842292,-0.262595,-0.598148,0.860743
6.655,-0.24056,0.436196,0.676755,-0.112951,-0.529612,0.642562
6.66,-0.254459,0.22002,0.474479,0.0198829,-0.420852,0.400969
6.665,-0.240432,0.0489627,0.289394,0.110545,-0.305895,0.19535
6.67,-0.206972,-0.0647217,0.142251,0.156863,-0.201624,0.0447613
6.675,-0.163631,-0.131452,0.0321788,0.170366,-0.113051,-0.0573154
6.68,-0.118617,-0.168733,-0.0501162,0.165902,-0.0395489,-0.126353
6.685,-0.0788712,-0.192153,-0.113282,0.156476,0.019867,-0.176343
6.69,-0.0488785,-0.210916,-0.162037,0.149992,0.0653321,-0.215324
6.695,-0.0290598,-0.22779,-0.19873,0.148292,0.0979594,-0.246252
6.7,-0.0178143,-0.24267,-0.224856,0.150391,0.119536,-0.269926
6.705,-0.0126749,-0.25445,-0.241775,0.154225,0.132271,-0.286495
6.71,-0.00981655,-0.262646,-0.25283,0.157306,0.140304,-0.29761
6.715,-0.00626814,-0.268226,-0.261958,0.158479,0.147622,-0.306102
6.72,-0.00245656,-0.271845,-0.269388,0.158368,0.154113,-0.312481
6.725,-0.000560837,-0.272532,-0.271971,0.15767,0.156699,-0.314369
6.73,-0.00154041,-0.271137,-0.269597,0.15743,0.154762,-0.312193
6.735,-0.00373277,-0.269403,-0.26567,0.157695,0.15123,-0.308924
6.74,-0.00512945,-0.267616,-0.262487,0.15747,0.148585,-0.306055
6.745,-0.00502075,-0.265802,-0.260782,0.15636,0.147663,-0.304023
6.75,-0.00281773,-0.263616,-0.260799,0.153826,0.148945,-0.302771
6.755,0.00159797,-0.260615,-0.262213,0.149544,0.152311,-0.301855
6.76,0.0070839,-0.25672,-0.263804,0.144128,0.156397,-0.300525
6.765,0.01147,-0.252686,-0.264156,0.139266,0.159133,-0.298399
6.77,0.0142587,-0.248942,-0.263201,0.135495,0.160191,-0.295686
6.775,0.0173385,-0.245567,-0.262905,0.131768,0.161799,-0.293566
6.78,0.0233277,-0.242621,-0.265949,0.126609,0.167014,-0.293623
6.785,0.0319039,-0.239904,-0.271808,0.120089,0.175348,-0.295437
6.79,0.0378243,-0.235334,-0.273159,0.114032,0.179546,-0.293579
6.795,0.0369309,-0.227437,-0.264368,0.109988,0.173955,-0.283943
6.8,0.0298041,-0.216792,-0.246596,0.107958,0.15958,-0.267537
6.805,0.0223495,-0.206257,-0.228606,0.106179,0.144889,-0.251068
6.81,0.0207693,-0.198036,-0.218806,0.102345,0.138319,-0.240664
6.815,0.0250599,-0.191991,-0.217051,0.0963777,0.139783,-0.23616
6.82,0.0328983,-0.1865,-0.219398,0.088682,0.145664,-0.234346
6.825,0.0428937,-0.180997,-0.223891,0.0797339,0.154028,-0.233762
6.83,0.0530391,-0.176542,-0.229581,0.0713042,0.163171,-0.234475
6.835,0.0628503,-0.170802,-0.233652,0.0623257,0.171186,-0.233511
6.84,0.0726183,-0.16077,-0.233388,0.0508941,0.176673,-0.227567
6.845,0.0811986,-0.148308,-0.229506,0.0387455,0.179386,-0.218131
6.85,0.0878937,-0.136835,-0.224729,0.0282562,0.180493,-0.208749
6.855,0.0933339,-0.128,-0.221334,0.0200146,0.181674,-0.201688
6.86,0.0990466,-0.122352,-0.221398,0.0134551,0.185009,-0.198464
6.865,0.106479,-0.119654,-0.226133,0.00760688,0.192034,-0.19964
6.87,0.115598,-0.119258,-0.234855,0.00211297,0.202334,-0.204447
6.875,0.125168,-0.119638,-0.244806,-0.00319297,0.213604,-0.210411
6.88,0.131936,-0.119851,-0.251787,-0.00697698,0.221543,-0.214566
6.885,0.131121,-0.11965,-0.250771,-0.00662289,0.220485,-0.213862
6.89,0.119705,-0.119671,-0.239376,-1.93E-05,0.207315,-0.207296
6.895,0.0994422,-0.121183,-0.220625,0.0125518,0.184791,-0.197342
6.9,0.0756064,-0.12467,-0.200276,0.0283269,0.159281,-0.187608
6.905,0.0533665,-0.129637,-0.183004,0.0440349,0.136468,-0.180503
6.91,0.0355567,-0.136886,-0.172442,0.0585024,0.120088,-0.178591
6.915,0.0221623,-0.148257,-0.170419,0.0728005,0.111187,-0.183987
6.92,0.01184,-0.163875,-0.175715,0.0877776,0.108285,-0.196063
6.925,0.00448603,-0.180751,-0.185237,0.101767,0.109537,-0.211303
6.93,-4.31E-07,-0.196703,-0.196702,0.113566,0.113566,-0.227132
6.935,-0.00486544,-0.211212,-0.206347,0.124753,0.116325,-0.241078
6.94,-0.0131764,-0.223043,-0.209867,0.136382,0.113559,-0.249941
6.945,-0.0234791,-0.231096,-0.207617,0.146979,0.106312,-0.253291
6.95,-0.0321266,-0.236675,-0.204548,0.155192,0.0995475,-0.25474
6.955,-0.0360694,-0.242509,-0.20644,0.160837,0.0983633,-0.259201
6.96,-0.0343804,-0.248674,-0.214293,0.163421,0.103873,-0.267294
6.965,-0.0281456,-0.253705,-0.22556,0.162727,0.113977,-0.276704
6.97,-0.0215171,-0.256594,-0.235077,0.160567,0.123299,-0.283866
6.975,-0.0208993,-0.256603,-0.235703,0.160216,0.124017,-0.284233
6.98,-0.0270496,-0.254484,-0.227435,0.162543,0.115692,-0.278236
6.985,-0.0351429,-0.251823,-0.21668,0.16568,0.104811,-0.27049
6.99,-0.0414541,-0.249545,-0.208091,0.168009,0.096208,-0.264217
6.995,-0.0449905,-0.24749,-0.2025,0.168864,0.090938,-0.259802
7,-0.0458364,-0.245417,-0.199581,0.168155,0.0887645,-0.25692
7.005,-0.0445504,-0.243633,-0.199082,0.166383,0.0892191,-0.255602
7.01,-0.040879,-0.242926,-0.202047,0.163855,0.0930505,-0.256905
7.015,-0.0356486,-0.243216,-0.207568,0.161003,0.0992574,-0.26026
7.02,-0.0312876,-0.243167,-0.211879,0.158456,0.104265,-0.262721
7.025,-0.0287086,-0.241668,-0.21296,0.156102,0.106377,-0.262479
7.03,-0.0281596,-0.238709,-0.21055,0.154077,0.105303,-0.259379
7.035,-0.0296249,-0.234369,-0.204744,0.152417,0.101105,-0.253522
7.04,-0.0309661,-0.229502,-0.198535,0.150381,0.0967461,-0.247127
7.045,-0.0301619,-0.22608,-0.195918,0.147941,0.0956996,-0.243641
7.05,-0.0268948,-0.224486,-0.197591,0.145134,0.0985514,-0.243686
7.055,-0.0218741,-0.224244,-0.20237,0.142096,0.104209,-0.246305
7.06,-0.0169461,-0.224865,-0.207919,0.139609,0.110258,-0.249867
7.065,-0.0155745,-0.226224,-0.21065,0.139602,0.112627,-0.252229
7.07,-0.0193327,-0.227,-0.207667,0.14222,0.108735,-0.250955
7.075,-0.0255213,-0.225989,-0.200467,0.145209,0.101005,-0.246214
7.08,-0.0289009,-0.224717,-0.195816,0.146426,0.0963682,-0.242794
7.085,-0.026546,-0.225233,-0.198687,0.145365,0.0993855,-0.24475
7.09,-0.0211477,-0.227285,-0.206138,0.143433,0.106804,-0.250237
7.095,-0.0172503,-0.23048,-0.21323,0.143027,0.113149,-0.256176
7.1,-0.0158402,-0.234314,-0.218474,0.144427,0.116991,-0.261417
7.105,-0.016627,-0.237882,-0.221255,0.146941,0.118142,-0.265083
7.11,-0.0199358,-0.240454,-0.220518,0.150336,0.115806,-0.266142
7.115,-0.0246628,-0.242207,-0.217544,0.154077,0.11136,-0.265437
7.12,-0.0286987,-0.243101,-0.214403,0.156924,0.107216,-0.26414
7.125,-0.0308327,-0.243855,-0.213023,0.158591,0.105187,-0.263779
7.13,-0.0300587,-0.245689,-0.21563,0.159203,0.10714,-0.266343
7.135,-0.0271701,-0.248658,-0.221488,0.159249,0.112189,-0.271438
7.14,-0.0245293,-0.251418,-0.226888,0.159318,0.116832,-0.27615
7.145,-0.0227425,-0.252277,-0.229535,0.158783,0.119391,-0.278174
7.15,-0.024488,-0.251241,-0.226753,0.159192,0.116778,-0.27597
7.155,-0.0314131,-0.249824,-0.218411,0.162372,0.107963,-0.270336
7.16,-0.0397181,-0.249963,-0.210245,0.167247,0.0984536,-0.265701
7.165,-0.0447345,-0.252367,-0.207633,0.171532,0.0940493,-0.265581
7.17,-0.0455575,-0.255432,-0.209875,0.173776,0.0948685,-0.268645
7.175,-0.0436103,-0.258268,-0.214657,0.174289,0.0987539,-0.273043
7.18,-0.0408361,-0.260162,-0.219326,0.173781,0.103051,-0.276833
7.185,-0.0390565,-0.261336,-0.22228,0.173432,0.105784,-0.279216
7.19,-0.0368901,-0.261555,-0.224665,0.172307,0.108412,-0.280719
7.195,-0.0333558,-0.260257,-0.226901,0.169517,0.111743,-0.281261
7.2,-0.0311437,-0.25851,-0.227366,0.167231,0.113289,-0.28052
7.205,-0.0315964,-0.25772,-0.226123,0.167037,0.11231,-0.279347
7.21,-0.0333692,-0.2578,-0.224431,0.168106,0.110309,-0.278416
7.215,-0.0351898,-0.258794,-0.223604,0.169731,0.108781,-0.278512
7.22,-0.0355499,-0.259701,-0.224151,0.170463,0.108889,-0.279352
7.225,-0.0328701,-0.259892,-0.227022,0.169026,0.112093,-0.281119
7.23,-0.0281578,-0.260371,-0.232214,0.166582,0.117812,-0.284394
7.235,-0.0224666,-0.260719,-0.238253,0.163497,0.124584,-0.288081
7.24,-0.0174446,-0.258322,-0.240877,0.159214,0.128999,-0.288212
7.245,-0.0153092,-0.252377,-0.237068,0.154549,0.128032,-0.282581
7.25,-0.0162484,-0.243385,-0.227137,0.1499,0.121757,-0.271656
7.255,-0.0196078,-0.231313,-0.211706,0.144869,0.110908,-0.255777
7.26,-0.024338,-0.217736,-0.193398,0.139762,0.0976069,-0.237368
7.265,-0.0292328,-0.205357,-0.176124,0.13544,0.0848078,-0.220248
7.27,-0.033173,-0.195576,-0.162403,0.132068,0.0746109,-0.206679
7.275,-0.0355747,-0.187163,-0.151588,0.128598,0.0669803,-0.195578
7.28,-0.0361425,-0.17725,-0.141108,0.123202,0.0606018,-0.183804
7.285,-0.0352568,-0.163557,-0.1283,0.114785,0.0537187,-0.168504
7.29,-0.033717,-0.146581,-0.112864,0.104095,0.0456954,-0.14979
7.295,-0.0321645,-0.129741,-0.0975764,0.0934761,0.0377655,-0.131242
7.3,-0.0306813,-0.115412,-0.0847305,0.0843469,0.0312053,-0.115552
7.305,-0.0269659,-0.104287,-0.0773213,0.0757789,0.0290727,-0.104852
7.31,-0.019239,-0.0989735,-0.0797346,0.06825,0.0349272,-0.103177
7.315,-0.0109456,-0.103456,-0.0925106,0.0660499,0.0470916,-0.113142
7.32,-0.00695284,-0.119322,-0.11237,0.072905,0.0608624,-0.133767
7.325,-0.00770487,-0.144515,-0.13681,0.0878839,0.0745387,-0.162423
7.33,-0.0094456,-0.175499,-0.166054,0.106778,0.0904178,-0.197196
7.335,-0.0115755,-0.208053,-0.196478,0.126803,0.106753,-0.233556
7.34,-0.0161294,-0.23639,-0.22026,0.145792,0.117855,-0.263647
7.345,-0.0227049,-0.25674,-0.234035,0.161338,0.122012,-0.283349
7.35,-0.0290167,-0.270102,-0.241086,0.172696,0.122438,-0.295134
7.355,-0.032534,-0.279907,-0.247373,0.180388,0.124037,-0.304425
7.36,-0.0333614,-0.287183,-0.253821,0.185066,0.127283,-0.312349
7.365,-0.033442,-0.291525,-0.258083,0.18762,0.129696,-0.317316
7.37,-0.0326933,-0.294127,-0.261434,0.18869,0.132063,-0.320753
7.375,-0.0300409,-0.297336,-0.267296,0.189011,0.136979,-0.32599
7.38,-0.0253654,-0.3007,-0.275335,0.188254,0.14432,-0.332574
7.385,-0.0163424,-0.298827,-0.282485,0.181963,0.153657,-0.335621
7.39,0.00297583,-0.280477,-0.283452,0.160215,0.165369,-0.325584
7.395,0.0357219,-0.229837,-0.265559,0.112072,0.173944,-0.286016
7.4,0.074487,-0.130388,-0.204875,0.0322744,0.16129,-0.193564
7.405,0.101221,0.0323017,-0.0689189,-0.0770891,0.09823,-0.0211409
7.41,0.0980002,0.25894,0.16094,-0.20608,-0.0363383,0.242418
7.415,0.0572801,0.513862,0.456581,-0.329749,-0.230537,0.560285
7.42,-0.0146954,0.718106,0.732801,-0.406114,-0.431567,0.837682
7.425,-0.100371,0.789281,0.889652,-0.397742,-0.57159,0.969332
7.43,-0.177512,0.701914,0.879426,-0.302764,-0.610223,0.912987
7.435,-0.228418,0.503132,0.731549,-0.158606,-0.554237,0.712843
7.44,-0.246769,0.274183,0.520952,-0.0158272,-0.443244,0.459071
7.445,-0.23424,0.0786876,0.312928,0.0898084,-0.315908,0.226099
7.45,-0.198814,-0.0589519,0.139862,0.148821,-0.195534,0.0467133
7.455,-0.152971,-0.142397,0.0105747,0.170531,-0.0944233,-0.0761074
7.46,-0.108196,-0.187428,-0.0792322,0.170679,-0.0167222,-0.153956
7.465,-0.0706075,-0.211752,-0.141145,0.163021,0.0407248,-0.203745
7.47,-0.0416529,-0.227507,-0.185854,0.1554,0.0832546,-0.238654
7.475,-0.0213746,-0.240365,-0.21899,0.151115,0.114093,-0.265208
7.48,-0.00827113,-0.252655,-0.244384,0.150646,0.13632,-0.286966
7.485,0.00101005,-0.265347,-0.266357,0.152615,0.154365,-0.30698
7.49,0.0103614,-0.276966,-0.287328,0.153924,0.171871,-0.325795
7.495,0.0208756,-0.285438,-0.306313,0.152745,0.188902,-0.341647
7.5,0.028618,-0.289883,-0.318502,0.150842,0.200409,-0.351251
7.505,0.0299904,-0.289532,-0.319523,0.149846,0.201791,-0.351638
7.51,0.026561,-0.285942,-0.312503,0.149754,0.195759,-0.345512
7.515,0.020186,-0.281671,-0.301857,0.150968,0.185931,-0.3369
7.52,0.0114667,-0.276969,-0.288436,0.153288,0.173149,-0.326437
7.525,0.0037546,-0.271361,-0.275115,0.154502,0.161005,-0.315508
7.53,0.000311045,-0.265807,-0.266118,0.153284,0.153823,-0.307106
7.535,0.00191677,-0.260991,-0.262908,0.149577,0.152896,-0.302473
7.54,0.00742341,-0.25632,-0.263743,0.1437,0.156558,-0.300258
7.545,0.0139238,-0.251071,-0.264995,0.136917,0.161034,-0.297951
7.55,0.0190957,-0.245704,-0.2648,0.130832,0.163907,-0.294739
7.555,0.0233735,-0.240443,-0.263816,0.125325,0.165809,-0.291134
7.56,0.0283815,-0.235614,-0.263996,0.119646,0.168804,-0.28845
7.565,0.0346413,-0.231618,-0.266259,0.113724,0.173725,-0.287449
7.57,0.0412733,-0.227365,-0.268638,0.10744,0.178927,-0.286367
7.575,0.0476221,-0.222048,-0.26967,0.100705,0.183188,-0.283893
7.58,0.0542478,-0.215519,-0.269767,0.0931102,0.18707,-0.28018
7.585,0.061749,-0.207942,-0.269691,0.0844048,0.191357,-0.275762
7.59,0.069879,-0.200788,-0.270667,0.0755802,0.196614,-0.272194
7.595,0.0755062,-0.194309,-0.269815,0.0685907,0.199371,-0.267962
7.6,0.0760903,-0.187801,-0.263892,0.0644964,0.196289,-0.260785
7.605,0.0746188,-0.180424,-0.255043,0.0610865,0.19033,-0.251417
7.61,0.0755581,-0.17059,-0.246148,0.0548664,0.185737,-0.240603
7.615,0.0812253,-0.158603,-0.239828,0.0446738,0.18536,-0.230034
7.62,0.0919023,-0.147027,-0.23893,0.0318264,0.191006,-0.222832
7.625,0.103574,-0.137963,-0.241537,0.0198544,0.19925,-0.219104
7.63,0.112006,-0.132033,-0.24404,0.0115625,0.205563,-0.217126
7.635,0.118268,-0.128672,-0.24694,0.00600676,0.210853,-0.21686
7.64,0.12678,-0.126423,-0.253203,-0.000205891,0.219383,-0.219177
7.645,0.136006,-0.123927,-0.259932,-0.00697378,0.228595,-0.221621
7.65,0.141266,-0.120169,-0.261435,-0.0121801,0.232499,-0.220319
7.655,0.142874,-0.115558,-0.258431,-0.015771,0.231693,-0.215922
7.66,0.142448,-0.112507,-0.254955,-0.0172869,0.229441,-0.212154
7.665,0.140507,-0.111459,-0.251965,-0.0167709,0.226594,-0.209823
7.67,0.135297,-0.112188,-0.247485,-0.0133417,0.220999,-0.207658
7.675,0.124251,-0.113541,-0.237792,-0.00618387,0.209026,-0.202842
7.68,0.10904,-0.1151,-0.22414,0.00349843,0.192361,-0.19586
7.685,0.0929553,-0.118553,-0.211509,0.014779,0.175782,-0.190561
7.69,0.0772532,-0.126018,-0.203271,0.0281544,0.161961,-0.190115
7.695,0.0621432,-0.137378,-0.199521,0.043437,0.151072,-0.194509
7.7,0.0476351,-0.150481,-0.198116,0.0593783,0.141885,-0.201263
7.705,0.0339929,-0.163662,-0.197654,0.0748642,0.133742,-0.208606
7.71,0.0213787,-0.175879,-0.197258,0.089201,0.12623,-0.215431
7.715,0.0105721,-0.187761,-0.198333,0.1023,0.120612,-0.222912
7.72,0.00263967,-0.19955,-0.20219,0.113686,0.118258,-0.231944
7.725,-0.00241675,-0.210147,-0.207731,0.122724,0.118538,-0.241262
7.73,-0.00479503,-0.218141,-0.213346,0.128712,0.120407,-0.249119
7.735,-0.00506696,-0.223448,-0.218381,0.131933,0.123157,-0.25509
7.74,-0.0051357,-0.227499,-0.222364,0.134312,0.125417,-0.259728
7.745,-0.00607023,-0.23086,-0.22479,0.136792,0.126278,-0.26307
7.75,-0.00745135,-0.233818,-0.226366,0.139297,0.126391,-0.265687
7.755,-0.00827146,-0.236064,-0.227793,0.141067,0.126741,-0.267808
7.76,-0.00986273,-0.236751,-0.226888,0.142382,0.1253,-0.267682
7.765,-0.0143157,-0.235343,-0.221027,0.14414,0.119345,-0.263485
7.77,-0.0197049,-0.230683,-0.210978,0.144561,0.110432,-0.254993
7.775,-0.023004,-0.223309,-0.200305,0.142209,0.102365,-0.244573
7.78,-0.0235176,-0.217025,-0.193507,0.138877,0.0981436,-0.237021
7.785,-0.0227665,-0.214861,-0.192094,0.137194,0.0977614,-0.234955
7.79,-0.022131,-0.215793,-0.193662,0.137365,0.0990332,-0.236398
7.795,-0.0224262,-0.216391,-0.193965,0.137881,0.099038,-0.236919
7.8,-0.0235752,-0.213801,-0.190226,0.137049,0.0962157,-0.233265
7.805,-0.0238179,-0.207809,-0.183991,0.13373,0.0924762,-0.226206
7.81,-0.0223304,-0.200893,-0.178563,0.128878,0.0902006,-0.219079
7.815,-0.0198428,-0.195933,-0.17609,0.124578,0.0902094,-0.214787
7.82,-0.0159617,-0.193819,-0.177857,0.121117,0.0934701,-0.214587
7.825,-0.0111846,-0.193495,-0.18231,0.118172,0.0987994,-0.216971
7.83,-0.00633943,-0.194265,-0.187926,0.115819,0.104839,-0.220658
7.835,-0.00313019,-0.195646,-0.192516,0.114764,0.109342,-0.224106
7.84,-0.0030222,-0.196702,-0.19368,0.115311,0.110076,-0.225387
7.845,-0.00611503,-0.196543,-0.190428,0.117005,0.106413,-0.223418
7.85,-0.0111886,-0.194963,-0.183774,0.119022,0.0996424,-0.218664
7.855,-0.016445,-0.191839,-0.175394,0.120253,0.0917694,-0.212022
7.86,-0.0208423,-0.187981,-0.167139,0.120564,0.0844644,-0.205029
7.865,-0.0232911,-0.185014,-0.161723,0.120265,0.0799237,-0.200189
7.87,-0.0236021,-0.184146,-0.160544,0.119944,0.0790636,-0.199007
7.875,-0.0229285,-0.185258,-0.16233,0.120197,0.0804833,-0.20068
7.88,-0.0221331,-0.187094,-0.164961,0.120797,0.0824618,-0.203259
7.885,-0.0205488,-0.1878,-0.167251,0.12029,0.0846986,-0.204989
7.89,-0.0179178,-0.187614,-0.169696,0.118664,0.087629,-0.206293
7.895,-0.0159566,-0.188314,-0.172358,0.117936,0.0902982,-0.208234
7.9,-0.0154314,-0.190559,-0.175128,0.118929,0.0922009,-0.21113
7.905,-0.0154068,-0.193051,-0.177644,0.120353,0.0936675,-0.21402
7.91,-0.0133824,-0.195902,-0.182519,0.12083,0.0976511,-0.218481
7.915,-0.00856368,-0.200068,-0.191505,0.120454,0.105621,-0.226075
7.92,-0.00448567,-0.204592,-0.200107,0.120711,0.112942,-0.233653
7.925,-0.0059606,-0.207319,-0.201358,0.123137,0.112813,-0.23595
7.93,-0.0128993,-0.207734,-0.194834,0.127382,0.10504,-0.232423
7.935,-0.019933,-0.207768,-0.187835,0.131463,0.0969383,-0.228402
7.94,-0.0233291,-0.20841,-0.185081,0.133795,0.0933876,-0.227182
7.945,-0.0230909,-0.20861,-0.185519,0.133772,0.0937778,-0.22755
7.95,-0.021338,-0.208458,-0.18712,0.132673,0.0957143,-0.228387
7.955,-0.0199731,-0.208579,-0.188606,0.131955,0.0973601,-0.229315
7.96,-0.0196807,-0.209183,-0.189503,0.132135,0.0980467,-0.230181
7.965,-0.0200192,-0.210574,-0.190555,0.133133,0.0984588,-0.231592
7.97,-0.0196841,-0.212582,-0.192897,0.134099,0.100005,-0.234103
7.975,-0.017906,-0.213845,-0.195939,0.133802,0.102788,-0.236589
7.98,-0.0154966,-0.213713,-0.198216,0.132334,0.105493,-0.237827
7.985,-0.0134994,-0.213307,-0.199808,0.130947,0.107565,-0.238512
7.99,-0.0128492,-0.214068,-0.201219,0.13101,0.108755,-0.239765
7.995,-0.0144645,-0.215827,-0.201363,0.132959,0.107906,-0.240865
8,-0.017092,-0.216183,-0.199091,0.134681,0.105077,-0.239758
8.005,-0.0176114,-0.213698,-0.196087,0.133546,0.103043,-0.236589
8.01,-0.014869,-0.209477,-0.194608,0.129526,0.103772,-0.233298
8.015,-0.0119597,-0.206801,-0.194841,0.126301,0.105587,-0.231888
8.02,-0.0115052,-0.206485,-0.19498,0.125857,0.105929,-0.231786
8.025,-0.0133777,-0.207021,-0.193643,0.127247,0.104076,-0.231323
8.03,-0.0170965,-0.2083,-0.191203,0.130132,0.10052,-0.230653
8.035,-0.0216884,-0.210419,-0.188731,0.134007,0.0964419,-0.230449
8.04,-0.02485,-0.21226,-0.18741,0.136896,0.0938541,-0.23075
8.045,-0.0239508,-0.212487,-0.188536,0.136507,0.0950234,-0.231531
8.05,-0.0198573,-0.211592,-0.191735,0.133627,0.0992336,-0.232861
8.055,-0.0164741,-0.210144,-0.19367,0.130838,0.102304,-0.233142
8.06,-0.0152807,-0.206743,-0.191462,0.128185,0.101718,-0.229904
8.065,-0.0144148,-0.200533,-0.186118,0.1241,0.099133,-0.223233
8.07,-0.0125748,-0.190536,-0.177961,0.117266,0.0954858,-0.212752
8.075,-0.0118349,-0.17761,-0.165775,0.109376,0.0888773,-0.198253
8.08,-0.0155372,-0.163509,-0.147971,0.103372,0.0764608,-0.179833
8.085,-0.023204,-0.14853,-0.125326,0.0991508,0.0589604,-0.158111
8.09,-0.0300164,-0.134275,-0.104258,0.0948535,0.0428635,-0.137717
8.095,-0.0317859,-0.121558,-0.0897724,0.0885333,0.0334785,-0.122012
8.1,-0.028505,-0.109112,-0.0806068,0.0794531,0.030081,-0.109534
8.105,-0.0217402,-0.0952399,-0.0734997,0.0675385,0.0298833,-0.0974218
8.11,-0.0124686,-0.0799192,-0.0674507,0.0533401,0.0317439,-0.085084
8.115,-0.00300662,-0.0644037,-0.0613971,0.0389193,0.0337117,-0.0726311
8.12,0.00322577,-0.050503,-0.0537288,0.0272955,0.0328827,-0.0601782
8.125,0.00380596,-0.0404499,-0.0442558,0.0211564,0.0277485,-0.0489049
8.13,-0.000715096,-0.0378929,-0.0371778,0.0222903,0.0210518,-0.0433421
8.135,-0.00702526,-0.0465824,-0.0395571,0.0309504,0.0187823,-0.0497326
8.14,-0.0117571,-0.0661562,-0.0543991,0.0449832,0.0246194,-0.0696026
8.145,-0.0135595,-0.0931047,-0.0795452,0.0615826,0.0380968,-0.0996794
8.15,-0.0123048,-0.123152,-0.110847,0.078206,0.0568936,-0.1351
8.155,-0.0107346,-0.152307,-0.141573,0.0941322,0.0755394,-0.169672
8.16,-0.0122038,-0.176568,-0.164364,0.108987,0.0878496,-0.196837
8.165,-0.0161953,-0.194451,-0.178255,0.121616,0.0935655,-0.215182
8.17,-0.0197128,-0.207007,-0.187294,0.130896,0.0967529,-0.227649
8.175,-0.0219941,-0.215801,-0.193807,0.137291,0.0991962,-0.236487
8.18,-0.0238846,-0.222279,-0.198394,0.142122,0.100753,-0.242875
8.185,-0.0259683,-0.227185,-0.201216,0.146158,0.10118,-0.247337
8.19,-0.0284922,-0.231837,-0.203345,0.150301,0.100951,-0.251253
8.195,-0.0286072,-0.23588,-0.207272,0.152701,0.103152,-0.255854
8.2,-0.0212323,-0.234428,-0.213196,0.147605,0.11083,-0.258435
8.205,-0.00530597,-0.217865,-0.212559,0.128848,0.119658,-0.248505
8.21,0.0171373,-0.174048,-0.191185,0.0905922,0.120275,-0.210867
8.215,0.0410125,-0.0897917,-0.130804,0.0281627,0.0991984,-0.127361
8.22,0.0562688,0.0479352,-0.00833362,-0.0601622,0.0372982,0.022864
8.225,0.0540094,0.244741,0.190732,-0.172484,-0.0789368,0.25142
8.23,0.0306609,0.482693,0.452032,-0.296385,-0.243279,0.539664
8.235,-0.0140616,0.702095,0.716157,-0.397236,-0.421592,0.818828
8.24,-0.0747408,0.821789,0.89653,-0.431309,-0.560763,0.992072
8.245,-0.140095,0.795345,0.93544,-0.378309,-0.62096,0.999269
8.25,-0.197138,0.644477,0.841615,-0.258271,-0.599724,0.857995
8.255,-0.233772,0.438035,0.671807,-0.117932,-0.522836,0.640767
8.26,-0.240953,0.242736,0.483689,-0.00102904,-0.418372,0.419402
8.265,-0.219425,0.0926296,0.312055,0.0732054,-0.30685,0.233644
8.27,-0.179511,-0.00866921,0.170842,0.108646,-0.202276,0.0936303
8.275,-0.132722,-0.0728851,0.0598368,0.118707,-0.111174,-0.00753345
8.28,-0.0869295,-0.114985,-0.0280552,0.116575,-0.0339911,-0.0825841
8.285,-0.0472352,-0.145532,-0.0982968,0.111294,0.0294804,-0.140775
8.29,-0.0182481,-0.168748,-0.1505,0.107962,0.0763555,-0.184318
8.295,-0.00227165,-0.184836,-0.182564,0.108027,0.104092,-0.212118
8.3,0.00306124,-0.193919,-0.19698,0.110192,0.115494,-0.225686
8.305,0.00309276,-0.197466,-0.200559,0.112222,0.117578,-0.2298
8.31,0.00312557,-0.197897,-0.201023,0.112452,0.117865,-0.230317
8.315,0.00399297,-0.196987,-0.20098,0.111425,0.118341,-0.229766
8.32,0.00324849,-0.19566,-0.198908,0.111089,0.116715,-0.227804
8.325,0.000809368,-0.194371,-0.19518,0.111753,0.113154,-0.224907
8.33,-0.000877977,-0.192781,-0.191903,0.111809,0.110288,-0.222098
8.335,7.99E-05,-0.190054,-0.190134,0.109681,0.10982,-0.219501
8.34,0.0033194,-0.186519,-0.189838,0.10577,0.11152,-0.21729
8.345,0.0073255,-0.1825,-0.189825,0.101137,0.113825,-0.214962
8.35,0.0105599,-0.177999,-0.188559,0.0966708,0.114961,-0.211632
8.355,0.0124875,-0.173461,-0.185948,0.0929378,0.114567,-0.207505
8.36,0.0136482,-0.169724,-0.183372,0.0901104,0.11375,-0.20386
8.365,0.0143627,-0.166981,-0.181344,0.0881145,0.112991,-0.201106
8.37,0.0153234,-0.163465,-0.178788,0.0855296,0.11207,-0.1976
8.375,0.0174474,-0.158286,-0.175734,0.0813132,0.111533,-0.192846
8.38,0.0209961,-0.151859,-0.172855,0.0755536,0.11192,-0.187474
8.385,0.0266266,-0.146029,-0.172656,0.068937,0.115056,-0.183993
8.39,0.034253,-0.14185,-0.176103,0.0621209,0.121449,-0.18357
8.395,0.0427518,-0.137422,-0.180174,0.0546581,0.128706,-0.183364
8.4,0.0508568,-0.130257,-0.181113,0.0458414,0.133928,-0.179769
8.405,0.0569699,-0.120615,-0.177585,0.0367454,0.13542,-0.172165
8.41,0.0608186,-0.109717,-0.170536,0.0282314,0.133572,-0.161804
8.415,0.063795,-0.0985226,-0.162318,0.0200499,0.130546,-0.150596
8.42,0.0681769,-0.0875331,-0.15571,0.0111753,0.129261,-0.140436
8.425,0.0742205,-0.0760952,-0.150316,0.00108232,0.129636,-0.130718
8.43,0.0802245,-0.0640898,-0.144314,-0.00931535,0.129637,-0.120322
8.435,0.0860348,-0.0522244,-0.138259,-0.0195204,0.129496,-0.109976
8.44,0.0925149,-0.0414506,-0.133966,-0.029482,0.130759,-0.101277
8.445,0.0984853,-0.0327572,-0.131242,-0.0379481,0.132633,-0.0946852
8.45,0.103217,-0.0255204,-0.128738,-0.0448583,0.133919,-0.089061
8.455,0.107983,-0.0185273,-0.12651,-0.0516473,0.135385,-0.0837375
8.46,0.113331,-0.0111257,-0.124457,-0.0590081,0.137287,-0.0782784
8.465,0.117766,-0.0038371,-0.121603,-0.065777,0.1382,-0.072423
8.47,0.119676,0.00159958,-0.118076,-0.0700182,0.137266,-0.0672477
8.475,0.118999,0.00398754,-0.115012,-0.0710065,0.135106,-0.0640999
8.48,0.11619,0.00389389,-0.112296,-0.0693303,0.131916,-0.0625859
8.485,0.111689,0.00287271,-0.108816,-0.0661423,0.127309,-0.0611666
8.49,0.105764,0.00162312,-0.104141,-0.0620001,0.121189,-0.0591888
8.495,0.0980617,-0.000633882,-0.0986956,-0.05625,0.113598,-0.0573479
8.5,0.0900092,-0.00496216,-0.0949714,-0.0491019,0.106799,-0.0576966
8.505,0.0829261,-0.012234,-0.0951601,-0.0408141,0.102818,-0.062004
8.51,0.0727284,-0.0238316,-0.09656,-0.0282305,0.0977386,-0.0695081
8.515,0.055968,-0.0383455,-0.0943135,-0.0101743,0.0867651,-0.0765907
8.52,0.0348736,-0.0537487,-0.0886223,0.0108976,0.0713003,-0.0821979
8.525,0.0143471,-0.0688232,-0.0831703,0.0314518,0.0563017,-0.0877535
8.53,-0.00126734,-0.0824143,-0.0811469,0.0483136,0.0461185,-0.094432
8.535,-0.0108855,-0.0945793,-0.0836938,0.0608901,0.0420359,-0.102926
8.54,-0.0151044,-0.105248,-0.0901441,0.0694857,0.0433242,-0.11281
8.545,-0.0147089,-0.114166,-0.0994571,0.0744059,0.0489294,-0.123335
8.55,-0.0130135,-0.121363,-0.108349,0.0775823,0.0550422,-0.132624
8.555,-0.0141277,-0.126739,-0.112611,0.0813291,0.0568592,-0.138188
8.56,-0.0183886,-0.130258,-0.111869,0.085821,0.053971,-0.139792
8.565,-0.0221445,-0.13325,-0.111105,0.0897168,0.0513614,-0.141078
8.57,-0.022863,-0.136584,-0.113721,0.0920565,0.0524566,-0.144513
8.575,-0.0217132,-0.138959,-0.117246,0.0927644,0.0551559,-0.14792
8.58,-0.0198044,-0.139494,-0.119689,0.0919708,0.0576685,-0.149639
8.585,-0.0165275,-0.137866,-0.121339,0.0891392,0.0605128,-0.149652
8.59,-0.0115811,-0.13449,-0.122909,0.0843343,0.0642752,-0.14861
8.595,-0.00726884,-0.131275,-0.124006,0.0799884,0.0673984,-0.147387
8.6,-0.00564647,-0.129238,-0.123592,0.0778756,0.0680956,-0.145971
8.605,-0.00753712,-0.127551,-0.120014,0.0779931,0.0649384,-0.142932
8.61,-0.0143571,-0.125309,-0.110952,0.0806362,0.0557691,-0.136405
8.615,-0.0244267,-0.121794,-0.0973676,0.0844208,0.0421124,-0.126533
8.62,-0.0333818,-0.11712,-0.0837383,0.0868923,0.0290733,-0.115966
8.625,-0.0371486,-0.112229,-0.0750803,0.0862431,0.0218999,-0.108143
8.63,-0.0338317,-0.108413,-0.0745813,0.082125,0.0235268,-0.105652
8.635,-0.0255016,-0.106222,-0.0807209,0.0760508,0.0318809,-0.107932
8.64,-0.0174775,-0.104557,-0.087079,0.0704564,0.0401844,-0.110641
8.645,-0.0145528,-0.102377,-0.0878244,0.0675095,0.0423034,-0.109813
8.65,-0.0170763,-0.100014,-0.0829379,0.0676022,0.0380252,-0.105627
8.655,-0.0218986,-0.0980463,-0.0761476,0.0692502,0.0313207,-0.100571
8.66,-0.0249853,-0.0959916,-0.0710064,0.069846,0.0265703,-0.0964163
8.665,-0.0228799,-0.094096,-0.0712161,0.067536,0.0279069,-0.095443
8.67,-0.016175,-0.0932742,-0.0770992,0.0631905,0.0351746,-0.0983651
8.675,-0.00926246,-0.0924714,-0.083209,0.0587361,0.042693,-0.101429
8.68,-0.00582933,-0.0907897,-0.0849604,0.055783,0.0456863,-0.101469
8.685,-0.00598116,-0.08835,-0.0823689,0.0544621,0.0441024,-0.0985645
8.69,-0.00718139,-0.085686,-0.0785046,0.053617,0.0411785,-0.0947955
8.695,-0.00746293,-0.0841169,-0.0766539,0.0528736,0.0399474,-0.092821
8.7,-0.0071921,-0.0849809,-0.0777888,0.0532161,0.040759,-0.0939751
8.705,-0.0074022,-0.0872272,-0.0798249,0.0546343,0.0418133,-0.0964475
8.71,-0.00895666,-0.0894353,-0.0804786,0.0568066,0.0412932,-0.0980998
8.715,-0.0116971,-0.0917274,-0.0800303,0.0597121,0.0394521,-0.0991643
8.72,-0.0150347,-0.0938316,-0.0787969,0.062854,0.0368131,-0.099667
8.725,-0.0186168,-0.0958637,-0.0772469,0.0660954,0.0338501,-0.0999454
8.73,-0.0216217,-0.0979068,-0.0762851,0.0690098,0.0315599,-0.10057
8.735,-0.0230464,-0.0991102,-0.0760638,0.0705271,0.0306096,-0.101137
8.74,-0.0235212,-0.098806,-0.0752849,0.0706256,0.0298858,-0.100511
8.745,-0.0246831,-0.0976769,-0.0729938,0.0706445,0.0278922,-0.0985367
8.75,-0.0258807,-0.0970225,-0.0711418,0.0709582,0.0261315,-0.0970897
8.755,-0.02577,-0.097147,-0.071377,0.0709661,0.0263312,-0.0972974
8.76,-0.0253226,-0.0979797,-0.0726571,0.0711886,0.0273286,-0.0985171
8.765,-0.0250803,-0.0994925,-0.0744122,0.0719221,0.0284818,-0.100404
8.77,-0.0231142,-0.101516,-0.0784017,0.0719552,0.0319203,-0.103875
8.775,-0.0191391,-0.103278,-0.0841387,0.0706773,0.0375275,-0.108205
8.78,-0.0162873,-0.104804,-0.0885172,0.0699123,0.0417019,-0.111614
8.785,-0.0175832,-0.105955,-0.0883719,0.0713249,0.0408698,-0.112195
8.79,-0.0221645,-0.106345,-0.0841808,0.0741952,0.0358051,-0.11
8.795,-0.0272031,-0.1066,-0.0793973,0.0772515,0.0301343,-0.107386
8.8,-0.029311,-0.107176,-0.0778651,0.0788008,0.0280327,-0.106834
8.805,-0.0263138,-0.107898,-0.0815846,0.0774875,0.0319106,-0.109398
8.81,-0.0209171,-0.110005,-0.089088,0.0755879,0.0393585,-0.114946
8.815,-0.0158218,-0.112688,-0.0968661,0.074195,0.0467909,-0.120986
8.82,-0.0131036,-0.113737,-0.100634,0.0732315,0.0505355,-0.123767
8.825,-0.0155661,-0.112082,-0.0965158,0.0736975,0.0467363,-0.120434
8.83,-0.0222915,-0.109027,-0.0867359,0.075817,0.037207,-0.113024
8.835,-0.0284025,-0.107568,-0.0791653,0.0785024,0.0293079,-0.10781
8.84,-0.031202,-0.108869,-0.0776672,0.0808701,0.0268266,-0.107697
8.845,-0.0319511,-0.111364,-0.0794133,0.0827433,0.0274023,-0.110146
8.85,-0.0324017,-0.112007,-0.0796052,0.0833744,0.0272529,-0.110627
8.855,-0.0324948,-0.109908,-0.0774135,0.0822164,0.0259338,-0.10815
8.86,-0.0311181,-0.106678,-0.0755601,0.0795567,0.0256586,-0.105215
8.865,-0.0279735,-0.104013,-0.0760394,0.0762024,0.0277508,-0.103953
